,0,1,2,3,4,5
0,4,-1.5060218653517956,-3.4104436489298413,4,-1.5060218653517956,-3.4104436489298413
1,1,-1.7317144711670034,-2.7018750759848285,1,-1.7317144711670034,-2.7018750759848285
2,4,-1.168547951327394,-3.532641010648479,4,-1.168547951327394,-3.532641010648479
3,5,-1.7607846219241876,-4.9009845437033475,5,-1.7607846219241876,-4.9009845437033475
4,5,-2.51923681368185,-5.13711949619361,5,-2.51923681368185,-5.13711949619361
5,5,-2.1432655482668728,-5.890522145054834,5,-2.1432655482668728,-5.890522145054834
6,5,-2.6406645390897854,-5.337094913390877,5,-2.6406645390897854,-5.337094913390877
7,5,-2.3380387147037816,-4.5705040607704746,5,-2.3380387147037816,-4.5705040607704746
8,5,-2.0214115852932,-4.921107237090511,5,-2.0214115852932,-4.921107237090511
9,5,-2.262370018475943,-4.02357523728332,5,-2.262370018475943,-4.02357523728332
10,1,-2.2702856544682835,-3.434957415647074,1,-2.2702856544682835,-3.434957415647074
11,5,-2.445599974610751,-3.86171723883858,5,-2.445599974610751,-3.86171723883858
12,5,-2.423769169305573,-4.091224965342066,5,-2.423769169305573,-4.091224965342066
13,5,-2.601619720454196,-4.823482129851378,5,-2.601619720454196,-4.823482129851378
14,5,-2.6055217324764506,-4.8278004459698,5,-2.6055217324764506,-4.8278004459698
15,5,-2.2556005345735333,-4.755518112845364,5,-2.2556005345735333,-4.755518112845364
16,5,-1.8399722982855842,-5.118693715984661,5,-1.8399722982855842,-5.118693715984661
17,5,-1.9292170419566501,-6.12975515786851,5,-1.9292170419566501,-6.12975515786851
18,5,-1.7165511128146667,-6.316628804237673,5,-1.7165511128146667,-6.316628804237673
19,5,-1.6116536238950543,-6.014311339313367,5,-1.6116536238950543,-6.014311339313367
20,5,-1.7727316576568684,-6.288207116854897,5,-1.7727316576568684,-6.288207116854897
21,5,-2.2433516818323227,-6.026013853625265,5,-2.2433516818323227,-6.026013853625265
22,5,-2.6376220600221085,-5.980891365196359,5,-2.6376220600221085,-5.980891365196359
23,5,-3.0464440020070134,-5.952975772948004,5,-3.0464440020070134,-5.952975772948004
24,5,-2.649964404331023,-5.239791672993908,5,-2.649964404331023,-5.239791672993908
25,5,-2.343486057207074,-5.370522106037404,5,-2.343486057207074,-5.370522106037404
26,5,-2.581526519931497,-3.682803169311908,5,-2.581526519931497,-3.682803169311908
27,1,-3.7432913637547434,-0.26727990544508223,1,-3.7432913637547434,-0.26727990544508223
28,0,-5.940878783457324,2.45548886790697,0,-5.940878783457324,2.45548886790697
29,0,-5.6568274224520145,3.1174930807616583,0,-5.6568274224520145,3.1174930807616583
30,0,-7.389282712746053,2.9957126542651524,0,-7.389282712746053,2.9957126542651524
31,0,-9.842528869981495,3.5476055790088696,0,-9.842528869981495,3.5476055790088696
32,0,-7.110437715204384,2.8859852484706257,0,-7.110437715204384,2.8859852484706257
33,0,-5.903188541769332,3.0954173226847908,0,-5.903188541769332,3.0954173226847908
34,0,-6.669564450816694,3.3185821060107408,0,-6.669564450816694,3.3185821060107408
35,0,-6.69037835278622,3.5059170083187197,0,-6.69037835278622,3.5059170083187197
36,0,-7.158593797829699,3.6931652602431044,0,-7.158593797829699,3.6931652602431044
37,0,-9.281251701058848,3.8147272994984327,0,-9.281251701058848,3.8147272994984327
38,0,-9.55524494658674,3.8859686535491305,0,-9.55524494658674,3.8859686535491305
39,0,-9.41718417477412,4.201054169365752,0,-9.41718417477412,4.201054169365752
40,0,-7.065631223731167,3.819126890499958,0,-7.065631223731167,3.819126890499958
41,0,-6.743917036989434,3.243974758485647,0,-6.743917036989434,3.243974758485647
42,0,-8.11256894425746,2.653120170899906,0,-8.11256894425746,2.653120170899906
43,0,-8.76629973984848,3.644183699733504,0,-8.76629973984848,3.644183699733504
44,0,-8.061251250692708,3.768366170264291,0,-8.061251250692708,3.768366170264291
45,0,-7.092027892870009,3.534401879866062,0,-7.092027892870009,3.534401879866062
46,0,-8.535273255323245,3.689322262700882,0,-8.535273255323245,3.689322262700882
47,0,-9.25134603748796,4.07871310002225,0,-9.25134603748796,4.07871310002225
48,0,-8.942546094308131,2.871000297534087,0,-8.942546094308131,2.871000297534087
49,0,-8.582721889194548,2.9764695875294347,0,-8.582721889194548,2.9764695875294347
50,0,-7.739597448745249,3.935086320500425,0,-7.739597448745249,3.935086320500425
51,0,-7.342300149725379,4.1541309687049495,0,-7.342300149725379,4.1541309687049495
52,0,-3.1391957439930693,4.490742579156701,0,-3.1391957439930693,4.490742579156701
53,4,3.1431990148501394,1.1261394413073404,4,3.1431990148501394,1.1261394413073404
54,4,2.218255318224474,-3.419419601359002,4,2.218255318224474,-3.419419601359002
55,4,0.43449125700435287,-5.920276327021448,4,0.43449125700435287,-5.920276327021448
56,5,0.23015632820027854,-6.259836810082806,5,0.23015632820027854,-6.259836810082806
57,5,0.06239780541371509,-6.536854235319045,5,0.06239780541371509,-6.536854235319045
58,5,0.0693777631456527,-7.119276618088761,5,0.0693777631456527,-7.119276618088761
59,5,0.15068646975315136,-7.020099941872985,5,0.15068646975315136,-7.020099941872985
60,5,0.40648426135704785,-6.917127572978164,5,0.40648426135704785,-6.917127572978164
61,5,0.2179113771040151,-7.209433839307986,5,0.2179113771040151,-7.209433839307986
62,5,-0.4378629575137447,-6.264361144291219,5,-0.4378629575137447,-6.264361144291219
63,5,-0.3772539188818933,-5.3132437020443515,5,-0.3772539188818933,-5.3132437020443515
64,5,-0.3675210550851764,-5.812424194025208,5,-0.3675210550851764,-5.812424194025208
65,5,-0.20063695098707068,-5.8036213543529716,5,-0.20063695098707068,-5.8036213543529716
66,5,0.3604142467897913,-4.987487469671754,5,0.3604142467897913,-4.987487469671754
67,5,0.9897214282185485,-5.653311872069291,5,0.9897214282185485,-5.653311872069291
68,5,1.2116950055239992,-6.588465462127028,5,1.2116950055239992,-6.588465462127028
69,5,1.085357402781344,-6.20890818471392,5,1.085357402781344,-6.20890818471392
70,5,0.5487757290699977,-5.754442838502553,5,0.5487757290699977,-5.754442838502553
71,5,0.3261408403368202,-6.1601876237174835,5,0.3261408403368202,-6.1601876237174835
72,5,0.518517923487444,-6.029380835278641,5,0.518517923487444,-6.029380835278641
73,5,-0.16194837850041743,-6.132228991522374,5,-0.16194837850041743,-6.132228991522374
74,5,-0.5032717067218222,-5.529071730309235,5,-0.5032717067218222,-5.529071730309235
75,5,-0.39222339130054795,-5.683413102502319,5,-0.39222339130054795,-5.683413102502319
76,5,-0.3121237902402161,-6.394625753901352,5,-0.3121237902402161,-6.394625753901352
77,5,0.42188911585547784,-5.912158296275175,5,0.42188911585547784,-5.912158296275175
78,5,0.23107230897865572,-6.138679715345839,5,0.23107230897865572,-6.138679715345839
79,4,0.4035028638639728,-5.840931319239286,4,0.4035028638639728,-5.840931319239286
80,4,0.4864263413029817,-5.062554531581072,4,0.4864263413029817,-5.062554531581072
81,4,-0.9195237101149152,-2.555183783575963,4,-0.9195237101149152,-2.555183783575963
82,1,-2.594867715856182,1.0864333927581522,1,-2.594867715856182,1.0864333927581522
83,0,-4.8962103682221905,2.8757728469524797,0,-4.8962103682221905,2.8757728469524797
84,0,-4.724583915675446,3.4273183579127293,0,-4.724583915675446,3.4273183579127293
85,0,-3.4972612057730172,1.8769028068154319,0,-3.4972612057730172,1.8769028068154319
86,0,-3.5906680834258338,1.551041746830771,0,-3.5906680834258338,1.551041746830771
87,0,-2.56833364525472,1.5373576642639382,0,-2.56833364525472,1.5373576642639382
88,0,-2.5625638403562903,1.4630577234395834,0,-2.5625638403562903,1.4630577234395834
89,0,-4.260527192268942,2.4893452226899804,0,-4.260527192268942,2.4893452226899804
90,0,-5.950438249110888,3.176102466756576,0,-5.950438249110888,3.176102466756576
91,0,-8.042726952155554,3.923006017419723,0,-8.042726952155554,3.923006017419723
92,0,-9.311221540220824,5.07580118586301,0,-9.311221540220824,5.07580118586301
93,0,-7.274300080011912,3.961424162136716,0,-7.274300080011912,3.961424162136716
94,0,-8.155429058274615,4.262886012290479,0,-8.155429058274615,4.262886012290479
95,0,-8.355672358711095,4.323272397962812,0,-8.355672358711095,4.323272397962812
96,0,-6.28529019844824,3.6246095771966487,0,-6.28529019844824,3.6246095771966487
97,0,-6.561253415895155,3.313660914095838,0,-6.561253415895155,3.313660914095838
98,0,-7.122055572145579,3.639181132843583,0,-7.122055572145579,3.639181132843583
99,0,-6.997260801481689,3.2945261454561288,0,-6.997260801481689,3.2945261454561288
100,0,-6.960403546563883,3.0994003093407634,0,-6.960403546563883,3.0994003093407634
101,0,-6.671745520537981,3.153972522611637,0,-6.671745520537981,3.153972522611637
102,0,-6.095299898525909,2.6680884072291198,0,-6.095299898525909,2.6680884072291198
103,0,-6.366599764868195,3.107463132235932,0,-6.366599764868195,3.107463132235932
104,0,-7.19701521244842,3.7962041938535767,0,-7.19701521244842,3.7962041938535767
105,0,-8.083093093032561,4.039943852102492,0,-8.083093093032561,4.039943852102492
106,0,-4.194691742457929,2.663349520424295,0,-4.194691742457929,2.663349520424295
107,0,-3.4466641135234863,3.0370511474204354,0,-3.4466641135234863,3.0370511474204354
108,2,1.5399310239619006,3.1561099148309877,2,1.5399310239619006,3.1561099148309877
109,4,6.742412114234116,0.8024082347382866,4,6.742412114234116,0.8024082347382866
110,4,3.86395584725465,-2.515024842266785,4,3.86395584725465,-2.515024842266785
111,4,1.866714896169094,-4.4588440633960005,4,1.866714896169094,-4.4588440633960005
112,4,0.1642734403097852,-5.471001811514864,4,0.1642734403097852,-5.471001811514864
113,5,-0.10938848589998784,-6.320021552716234,5,-0.10938848589998784,-6.320021552716234
114,5,0.31928121110252583,-6.38690862915435,5,0.31928121110252583,-6.38690862915435
115,5,0.3676055953572934,-6.766677584072668,5,0.3676055953572934,-6.766677584072668
116,5,0.47294944551499407,-6.427125364939935,5,0.47294944551499407,-6.427125364939935
117,5,0.21239366248730995,-5.979684187367872,5,0.21239366248730995,-5.979684187367872
118,5,-0.334767807261545,-6.006521000888251,5,-0.334767807261545,-6.006521000888251
119,5,-0.23364914912498147,-6.378060308398269,5,-0.23364914912498147,-6.378060308398269
120,5,0.17627305995996023,-6.799300157218783,5,0.17627305995996023,-6.799300157218783
121,5,-0.7240180719752574,-6.626952606681087,5,-0.7240180719752574,-6.626952606681087
122,5,-1.2024403467746172,-6.460493889676931,5,-1.2024403467746172,-6.460493889676931
123,5,-1.0332273847503672,-7.025523595280248,5,-1.0332273847503672,-7.025523595280248
124,5,-0.9823162385050783,-6.26832102935604,5,-0.9823162385050783,-6.26832102935604
125,5,-0.439692559191045,-5.258033430141603,5,-0.439692559191045,-5.258033430141603
126,6,-0.5972975882033462,-5.4940252349509455,6,-0.5972975882033462,-5.4940252349509455
127,5,-0.5817151084266667,-5.855427201407795,5,-0.5817151084266667,-5.855427201407795
128,5,0.009008257391324825,-6.255737844233851,5,0.009008257391324825,-6.255737844233851
129,5,-1.2418485262634569,-5.639658764335683,5,-1.2418485262634569,-5.639658764335683
130,5,-1.4290308532928788,-5.744070923045908,5,-1.4290308532928788,-5.744070923045908
131,5,-0.11387550089784382,-5.983847968959708,5,-0.11387550089784382,-5.983847968959708
132,5,-0.09104727364197807,-5.234497656375793,5,-0.09104727364197807,-5.234497656375793
133,6,-1.0160981615358595,-4.71729591857446,6,-1.0160981615358595,-4.71729591857446
134,6,-1.4801855316900392,-1.7770774991760572,6,-1.4801855316900392,-1.7770774991760572
135,0,-1.039418175154451,3.460668682503499,0,-1.039418175154451,3.460668682503499
136,0,-3.7187207701913816,5.061191644345973,0,-3.7187207701913816,5.061191644345973
137,0,-6.683451872546418,3.884965986885723,0,-6.683451872546418,3.884965986885723
138,0,-7.1303001771754575,4.243298284456734,0,-7.1303001771754575,4.243298284456734
139,0,-5.090833997348104,3.849470741219321,0,-5.090833997348104,3.849470741219321
140,0,-0.848314569241289,1.9644814470749599,0,-0.848314569241289,1.9644814470749599
141,0,-1.650197267693653,1.409199857325523,0,-1.650197267693653,1.409199857325523
142,0,-6.490238534698489,3.968798827774905,0,-6.490238534698489,3.968798827774905
143,0,-8.739206028259009,6.1017349127362985,0,-8.739206028259009,6.1017349127362985
144,0,-5.204115548432682,3.758054879498449,0,-5.204115548432682,3.758054879498449
145,0,-1.896334554457445,1.095029713349575,0,-1.896334554457445,1.095029713349575
146,0,-4.848898090671126,3.492939713291138,0,-4.848898090671126,3.492939713291138
147,0,-6.946319914949184,4.595516672442421,0,-6.946319914949184,4.595516672442421
148,0,-4.407090668750435,1.7724443374302346,0,-4.407090668750435,1.7724443374302346
149,0,-2.6388987475366372,0.8433409159852867,0,-2.6388987475366372,0.8433409159852867
150,0,-2.9145879541484083,2.578467513783662,0,-2.9145879541484083,2.578467513783662
151,0,-2.727793270451617,3.806461398736762,0,-2.727793270451617,3.806461398736762
152,4,2.561154287070219,2.5821447548156318,4,2.561154287070219,2.5821447548156318
153,4,4.591822724953535,2.211276692459377,4,4.591822724953535,2.211276692459377
154,4,1.3046141014551615,2.9370653727984055,4,1.3046141014551615,2.9370653727984055
155,2,0.2750188032956067,1.1654607288075962,2,0.2750188032956067,1.1654607288075962
156,0,-1.7153889916260323,1.9161516290575815,0,-1.7153889916260323,1.9161516290575815
157,0,-3.684547798005724,3.8758392201914376,0,-3.684547798005724,3.8758392201914376
158,0,-3.6304698361939733,2.474615766262355,0,-3.6304698361939733,2.474615766262355
159,0,-6.571235659090355,2.9984110402894877,0,-6.571235659090355,2.9984110402894877
160,0,-6.43289639298059,3.347789009807824,0,-6.43289639298059,3.347789009807824
161,4,0.5608465761767198,0.8422103998856276,4,0.5608465761767198,0.8422103998856276
162,4,4.419771916884921,-1.4906719285935794,4,4.419771916884921,-1.4906719285935794
163,4,1.639826899463082,-2.6717566430904287,4,1.639826899463082,-2.6717566430904287
164,4,0.027365544882473003,-4.2187034758205755,4,0.027365544882473003,-4.2187034758205755
165,4,0.14110906088272168,-4.58128904356539,4,0.14110906088272168,-4.58128904356539
166,4,-0.20474795057806228,-4.718188279568175,4,-0.20474795057806228,-4.718188279568175
167,4,-0.9173421066349228,-5.032684638153215,4,-0.9173421066349228,-5.032684638153215
168,4,-0.2915454479566999,-5.096215616616695,4,-0.2915454479566999,-5.096215616616695
169,4,-0.658149796731557,-5.337228010555361,4,-0.658149796731557,-5.337228010555361
170,4,-0.9455691079500204,-5.343608556331597,4,-0.9455691079500204,-5.343608556331597
171,4,0.013846754527351735,-5.03348971835283,4,0.013846754527351735,-5.03348971835283
172,4,0.4906376001440411,-4.266523878898107,4,0.4906376001440411,-4.266523878898107
173,4,0.38638123914277855,-4.296067491988828,4,0.38638123914277855,-4.296067491988828
174,4,0.902540180413336,-5.8758788722297615,4,0.902540180413336,-5.8758788722297615
175,4,1.6667702663910657,-5.8371618647442185,4,1.6667702663910657,-5.8371618647442185
176,4,0.7871819158499282,-5.034585369174252,4,0.7871819158499282,-5.034585369174252
177,4,0.11090623737447514,-5.321782382967795,4,0.11090623737447514,-5.321782382967795
178,4,-0.5585989966494114,-4.699982034240634,4,-0.5585989966494114,-4.699982034240634
179,4,0.24197860810672767,-4.721804394996567,4,0.24197860810672767,-4.721804394996567
180,5,0.2950998953305515,-5.240432672564494,5,0.2950998953305515,-5.240432672564494
181,4,-0.901685950382423,-5.032389505812226,4,-0.901685950382423,-5.032389505812226
182,4,0.10253696667257861,-4.51988274517846,4,0.10253696667257861,-4.51988274517846
183,4,0.5562948727722152,-5.160693779348335,4,0.5562948727722152,-5.160693779348335
184,5,0.20890245662366702,-6.418571268176436,5,0.20890245662366702,-6.418571268176436
185,4,0.9154110692782225,-6.054412027557762,4,0.9154110692782225,-6.054412027557762
186,4,1.375450502771368,-5.224236098917924,4,1.375450502771368,-5.224236098917924
187,4,0.6669769392747895,-5.367179628795686,4,0.6669769392747895,-5.367179628795686
188,5,-0.1677479130071471,-5.163581303994363,5,-0.1677479130071471,-5.163581303994363
189,4,-1.3467595910833037,-2.9878512996697513,4,-1.3467595910833037,-2.9878512996697513
190,1,-2.34253371341471,0.41139473560744,1,-2.34253371341471,0.41139473560744
191,1,-2.991829107241952,2.928733179146813,1,-2.991829107241952,2.928733179146813
192,0,-1.9829783105165364,3.7893023364986553,0,-1.9829783105165364,3.7893023364986553
193,0,-2.208678759272148,3.2406569565665144,0,-2.208678759272148,3.2406569565665144
194,0,-6.027433932058431,3.9331442485202315,0,-6.027433932058431,3.9331442485202315
195,0,-6.558142785028204,4.030376623299417,0,-6.558142785028204,4.030376623299417
196,0,-6.3797451231286395,3.0885264951494364,0,-6.3797451231286395,3.0885264951494364
197,0,-4.474096289239585,2.2235805922049146,0,-4.474096289239585,2.2235805922049146
198,0,-5.9822517163684985,4.280255042411082,0,-5.9822517163684985,4.280255042411082
199,0,-5.5382549357776325,2.5869760260592827,0,-5.5382549357776325,2.5869760260592827
200,0,-4.6237247902236165,2.018334669061924,0,-4.6237247902236165,2.018334669061924
201,0,-3.2535092072683436,1.8808831360726024,0,-3.2535092072683436,1.8808831360726024
202,2,-1.3344938406225468,-0.48918660846008005,2,-1.3344938406225468,-0.48918660846008005
203,0,-3.230288704611109,-0.34745877250798746,0,-3.230288704611109,-0.34745877250798746
204,0,-4.189345346444259,1.053993663210052,0,-4.189345346444259,1.053993663210052
205,0,-2.990967124944227,2.9646588169122348,0,-2.990967124944227,2.9646588169122348
206,2,-0.33017493928514274,1.6426897696121092,2,-0.33017493928514274,1.6426897696121092
207,2,-1.1411804442373863,0.8694308438338816,2,-1.1411804442373863,0.8694308438338816
208,0,-3.6961199346211755,2.467633667677254,0,-3.6961199346211755,2.467633667677254
209,2,0.39990756956392604,-0.35132121146628725,2,0.39990756956392604,-0.35132121146628725
210,0,-1.3927932548142858,0.49978812415106944,0,-1.3927932548142858,0.49978812415106944
211,0,-5.321212249358728,2.2339505170953697,0,-5.321212249358728,2.2339505170953697
212,0,-3.094184724960284,0.9633408393654537,0,-3.094184724960284,0.9633408393654537
213,0,-1.9681875466426555,0.28881862501182964,0,-1.9681875466426555,0.28881862501182964
214,0,-5.09779415736652,1.3235020022244548,0,-5.09779415736652,1.3235020022244548
215,0,-8.743441532869975,3.980776157338965,0,-8.743441532869975,3.980776157338965
216,0,-7.899068131977671,3.153327234050461,0,-7.899068131977671,3.153327234050461
217,6,-3.7437127803366925,-0.41102847378540147,6,-3.7437127803366925,-0.41102847378540147
218,6,-0.5485707161842577,-0.9298001718477504,6,-0.5485707161842577,-0.9298001718477504
219,4,1.864590180459709,-1.216820201354632,4,1.864590180459709,-1.216820201354632
220,4,1.1589963674360457,-3.842470786279984,4,1.1589963674360457,-3.842470786279984
221,5,-0.48713706032290593,-6.292984363376121,5,-0.48713706032290593,-6.292984363376121
222,5,-0.1768263119874809,-7.135198516302946,5,-0.1768263119874809,-7.135198516302946
223,5,-0.6544994702599176,-6.284579941876743,5,-0.6544994702599176,-6.284579941876743
224,5,0.08905412024495973,-5.8120493775398545,5,0.08905412024495973,-5.8120493775398545
225,5,-0.024552191847815763,-5.880619859431847,5,-0.024552191847815763,-5.880619859431847
226,5,-0.8425401280434115,-6.441434628488852,5,-0.8425401280434115,-6.441434628488852
227,5,-0.7960979368566492,-6.321451178759924,5,-0.7960979368566492,-6.321451178759924
228,5,-0.6767048508173672,-6.446872750706401,5,-0.6767048508173672,-6.446872750706401
229,5,-0.9247507174077754,-6.521525384671616,5,-0.9247507174077754,-6.521525384671616
230,5,-0.975922911808599,-6.098188838702982,5,-0.975922911808599,-6.098188838702982
231,5,-1.0507329734150455,-6.540688125081107,5,-1.0507329734150455,-6.540688125081107
232,5,-1.4296149633553448,-6.125669715208281,5,-1.4296149633553448,-6.125669715208281
233,1,-2.979981823734641,-3.7302404334734085,1,-2.979981823734641,-3.7302404334734085
234,1,-2.2783702553760223,-2.5771946096151988,1,-2.2783702553760223,-2.5771946096151988
235,6,-0.3165634788672742,-3.7224260136256615,6,-0.3165634788672742,-3.7224260136256615
236,4,-0.5542126463122661,-3.39886879043538,4,-0.5542126463122661,-3.39886879043538
237,4,-0.6290614329941171,-3.5341743683028626,4,-0.6290614329941171,-3.5341743683028626
238,4,-0.10177880755975144,-4.910729588606177,4,-0.10177880755975144,-4.910729588606177
239,4,1.166721137362818,-4.920318180051006,4,1.166721137362818,-4.920318180051006
240,4,0.8708388895352424,-4.646560268657054,4,0.8708388895352424,-4.646560268657054
241,5,-0.7104664939610981,-4.360419345165297,5,-0.7104664939610981,-4.360419345165297
242,6,-0.6528387771717465,-2.0183845663031788,6,-0.6528387771717465,-2.0183845663031788
243,6,-0.9435847184612927,1.0127928390577758,6,-0.9435847184612927,1.0127928390577758
244,2,-1.562854031905068,1.904803405308255,2,-1.562854031905068,1.904803405308255
245,2,-0.9970737180091442,0.5687360932225414,2,-0.9970737180091442,0.5687360932225414
246,2,-1.184482291795433,0.006142551403556962,2,-1.184482291795433,0.006142551403556962
247,0,-3.3636550927949607,-0.1208438429363034,0,-3.3636550927949607,-0.1208438429363034
248,2,-1.875275913839936,-0.07469618141093726,2,-1.875275913839936,-0.07469618141093726
249,2,1.8384513593202318,-1.594711031442034,2,1.8384513593202318,-1.594711031442034
250,2,0.9658542457418786,-0.8999581323160659,2,0.9658542457418786,-0.8999581323160659
251,2,0.24003905662963776,-0.35673282997079037,2,0.24003905662963776,-0.35673282997079037
252,2,-0.7127614640679956,0.7777313242559909,2,-0.7127614640679956,0.7777313242559909
253,2,0.22474811134120865,1.3865826646469042,2,0.22474811134120865,1.3865826646469042
254,2,2.4828960841151066,1.9140528480611982,2,2.4828960841151066,1.9140528480611982
255,4,1.5688456792772758,2.3339061058936927,4,1.5688456792772758,2.3339061058936927
256,2,2.914598775242603,0.2331291544431942,2,2.914598775242603,0.2331291544431942
257,2,1.4654848952486637,2.144663672099544,2,1.4654848952486637,2.144663672099544
258,2,1.0570172025301172,3.291664379476052,2,1.0570172025301172,3.291664379476052
259,2,2.5927052594636124,1.7541629007081012,2,2.5927052594636124,1.7541629007081012
260,2,-1.265480900198109,2.0959523573981684,2,-1.265480900198109,2.0959523573981684
261,0,-3.139478602787099,2.040136561880468,0,-3.139478602787099,2.040136561880468
262,0,-2.573631887652847,0.9324636409911145,0,-2.573631887652847,0.9324636409911145
263,2,-1.6050845985623,1.8714934027616887,2,-1.6050845985623,1.8714934027616887
264,0,-2.968834689217408,2.8724758946167777,0,-2.968834689217408,2.8724758946167777
265,0,-3.9245847724258063,1.3110491796669563,0,-3.9245847724258063,1.3110491796669563
266,0,-3.95146915348001,0.5818529928841589,0,-3.95146915348001,0.5818529928841589
267,2,-1.4501606218511809,-0.016425448640235596,2,-1.4501606218511809,-0.016425448640235596
268,2,-1.3928302184426142,0.27103053276035505,2,-1.3928302184426142,0.27103053276035505
269,0,-2.8897575397004474,1.5234877253615713,0,-2.8897575397004474,1.5234877253615713
270,2,-1.9158807876528772,0.6382694104360616,2,-1.9158807876528772,0.6382694104360616
271,2,-0.41220496853028754,-0.1429485387494692,2,-0.41220496853028754,-0.1429485387494692
272,4,2.7271957707067744,1.746584264372161,4,2.7271957707067744,1.746584264372161
273,4,4.596600966811866,2.0377381920031232,4,4.596600966811866,2.0377381920031232
274,4,2.4027012589926358,-1.4174456122131633,4,2.4027012589926358,-1.4174456122131633
275,4,1.2868367538596988,-3.128894644351957,4,1.2868367538596988,-3.128894644351957
276,4,1.5951014461059358,-3.1244017192688482,4,1.5951014461059358,-3.1244017192688482
277,4,0.7311574912247543,-3.4816720499881595,4,0.7311574912247543,-3.4816720499881595
278,4,0.8256742232049765,-4.1303806446278,4,0.8256742232049765,-4.1303806446278
279,6,1.1205315645285987,-4.55373426786552,6,1.1205315645285987,-4.55373426786552
280,6,1.8105668969812592,-4.887284897975604,6,1.8105668969812592,-4.887284897975604
281,2,3.462387497354546,-4.395179416087264,2,3.462387497354546,-4.395179416087264
282,2,4.651471612755524,-1.3938291206499254,2,4.651471612755524,-1.3938291206499254
283,2,4.082085337254728,-2.049196654266708,2,4.082085337254728,-2.049196654266708
284,5,1.266216552633713,-6.075253574616946,5,1.266216552633713,-6.075253574616946
285,5,-0.6245812142877942,-8.228481191602045,5,-0.6245812142877942,-8.228481191602045
286,5,-0.4828961578305284,-8.998149521543212,5,-0.4828961578305284,-8.998149521543212
287,5,0.33257666019854026,-9.077098700375018,5,0.33257666019854026,-9.077098700375018
288,5,0.04245546394194344,-8.773040899764718,5,0.04245546394194344,-8.773040899764718
289,5,-0.39711146031443745,-8.630539120570223,5,-0.39711146031443745,-8.630539120570223
290,5,-0.26435865438002937,-8.783162011183604,5,-0.26435865438002937,-8.783162011183604
291,5,-0.403192601319156,-9.07699923929506,5,-0.403192601319156,-9.07699923929506
292,5,-0.5246471203616805,-9.21383423642346,5,-0.5246471203616805,-9.21383423642346
293,5,-0.7292154240577613,-9.148489558589596,5,-0.7292154240577613,-9.148489558589596
294,5,-0.5845289796146935,-9.396767939819247,5,-0.5845289796146935,-9.396767939819247
295,5,-0.6567760470795903,-9.464794543930001,5,-0.6567760470795903,-9.464794543930001
296,5,-0.5363484258403464,-9.537578027574945,5,-0.5363484258403464,-9.537578027574945
297,5,-0.25815225968975497,-9.441450496370718,5,-0.25815225968975497,-9.441450496370718
298,5,-0.2635637567764131,-8.539952151345545,5,-0.2635637567764131,-8.539952151345545
299,5,-0.20525295854784442,-3.6823097956878894,5,-0.20525295854784442,-3.6823097956878894
300,1,-2.142287217636798,2.198764509624122,1,-2.142287217636798,2.198764509624122
301,0,-2.5072008266079173,2.4515027678559975,0,-2.5072008266079173,2.4515027678559975
302,0,-4.658059759162471,2.362824392984729,0,-4.658059759162471,2.362824392984729
303,0,-8.141065375623054,3.7736975798508006,0,-8.141065375623054,3.7736975798508006
304,0,-7.4638674671200285,3.3458238735404198,0,-7.4638674671200285,3.3458238735404198
305,0,-8.287302919058032,3.261301599086252,0,-8.287302919058032,3.261301599086252
306,0,-9.576631304168611,4.720691475574613,0,-9.576631304168611,4.720691475574613
307,0,-9.160017992504674,6.133965656442935,0,-9.160017992504674,6.133965656442935
308,0,-9.120367603463496,5.798813323493555,0,-9.120367603463496,5.798813323493555
309,0,-7.329291564822466,4.591989585998662,0,-7.329291564822466,4.591989585998662
310,0,-4.005793688661527,3.691509843243504,0,-4.005793688661527,3.691509843243504
311,0,-4.1958702083926775,3.424776903634052,0,-4.1958702083926775,3.424776903634052
312,0,-6.119506341901447,3.716621991058282,0,-6.119506341901447,3.716621991058282
313,0,-5.449484740418441,2.904525718813448,0,-5.449484740418441,2.904525718813448
314,0,-6.289331099662826,3.464355048551865,0,-6.289331099662826,3.464355048551865
315,0,-6.649697481742226,4.560675831089048,0,-6.649697481742226,4.560675831089048
316,0,-6.642848553791172,4.284253552050874,0,-6.642848553791172,4.284253552050874
317,0,-7.791182736424895,4.427205220077637,0,-7.791182736424895,4.427205220077637
318,0,-7.508918151724573,4.8488427092416435,0,-7.508918151724573,4.8488427092416435
319,0,-7.2181765587646805,5.511263073258351,0,-7.2181765587646805,5.511263073258351
320,0,-6.542547822699485,4.766904045794695,0,-6.542547822699485,4.766904045794695
321,0,-4.167039899964763,2.5446643808525407,0,-4.167039899964763,2.5446643808525407
322,0,-4.457902951087089,2.1543302067736363,0,-4.457902951087089,2.1543302067736363
323,0,-2.8781382131542226,1.3451390415608657,0,-2.8781382131542226,1.3451390415608657
324,2,3.643697978492273,-0.43124419459684926,2,3.643697978492273,-0.43124419459684926
325,4,3.4960661459655924,-1.1121330269483185,4,3.4960661459655924,-1.1121330269483185
326,4,-0.34036781455859,-3.555948684013276,4,-0.34036781455859,-3.555948684013276
327,5,-0.7046623533500087,-5.683482070946472,5,-0.7046623533500087,-5.683482070946472
328,5,-0.4215927959928507,-6.547261433558759,5,-0.4215927959928507,-6.547261433558759
329,5,-0.9854398147176258,-7.504605365428368,5,-0.9854398147176258,-7.504605365428368
330,5,-0.4471523522141472,-7.272440695065184,5,-0.4471523522141472,-7.272440695065184
331,5,0.710882522277013,-4.690163636090237,5,0.710882522277013,-4.690163636090237
332,4,0.6738997344336943,-4.225361561509522,4,0.6738997344336943,-4.225361561509522
333,4,-0.15589837290742636,-5.028939565219765,4,-0.15589837290742636,-5.028939565219765
334,5,0.3404215620554245,-5.261523537552708,5,0.3404215620554245,-5.261523537552708
335,5,1.0243165003621484,-6.527554557609357,5,1.0243165003621484,-6.527554557609357
336,5,0.02531999230096682,-6.986073293356585,5,0.02531999230096682,-6.986073293356585
337,6,-0.6597546976424664,-6.100867206367925,6,-0.6597546976424664,-6.100867206367925
338,6,-0.22721908447773753,-6.1852076495502235,6,-0.22721908447773753,-6.1852076495502235
339,6,-0.04023314791291055,-6.469326596317002,6,-0.04023314791291055,-6.469326596317002
340,6,0.23243263029358996,-6.138254474998943,6,0.23243263029358996,-6.138254474998943
341,6,0.6553316638728255,-6.022603424401198,6,0.6553316638728255,-6.022603424401198
342,6,0.4542203445769091,-6.2276351411555915,6,0.4542203445769091,-6.2276351411555915
343,6,0.10340391662803805,-7.047692392672446,6,0.10340391662803805,-7.047692392672446
344,5,0.8475062082932299,-6.838738784580973,5,0.8475062082932299,-6.838738784580973
345,6,0.46883873090354067,-6.5824037194679645,6,0.46883873090354067,-6.5824037194679645
346,6,-0.10158681110590573,-5.53717964970158,6,-0.10158681110590573,-5.53717964970158
347,6,-0.015298802384214216,-4.765332778058737,6,-0.015298802384214216,-4.765332778058737
