,0,1,2,3,4,5,6,7,8,9,10,11,12,13,14,15,16,17,18,19,20,21,22,23,24,25,26,27,28,29,30,31,32
0,33.078125,1791.241943359375,37,3348.0,56.78125,4417.765625,31,5331.0,48.90625,3614.83984375,31,4731.0,45.046875,3235.517333984375,29,4265.0,50.484375,4015.091552734375,37,5134.0,14.71875,390.7568359375,31,1417.0,11.9375,219.0615234375,32,1150.0,26.953125,1142.138427734375,35,2555.0,0
1,30.1875,1423.2568359375,40,3138.0,56.328125,4349.366943359375,36,5282.0,48.296875,3333.474365234375,31,4271.0,44.375,2930.2099609375,35,4020.0,56.203125,4227.386474609375,31,4702.0,16.515625,436.509521484375,33,1487.0,11.921875,217.702880859375,37,1153.0,28.703125,1245.501708984375,38,2919.0,0
2,29.25,1391.02734375,35,2872.0,56.34375,4335.9990234375,37,5449.0,52.53125,3822.7958984375,31,4613.0,37.34375,2212.08984375,38,3627.0,52.5,3762.3896484375,34,4477.0,16.125,396.640625,32,1432.0,10.9375,194.5458984375,35,1001.0,25.96875,1128.796875,39,2675.0,0
3,33.578125,1885.558349609375,39,3619.0,54.4375,4103.87109375,38,5235.0,48.21875,3403.3037109375,28,4255.0,35.234375,2084.294677734375,35,3433.0,47.265625,3538.825927734375,35,4507.0,13.984375,378.632568359375,34,1363.0,9.640625,178.327880859375,26,888.0,21.046875,731.966552734375,40,2159.0,0
4,35.3125,2029.33984375,38,3774.0,49.671875,3570.234130859375,39,4933.0,42.390625,2821.064208984375,33,4055.0,34.9375,1972.8662109375,38,3519.0,42.640625,2814.224365234375,36,4341.0,12.078125,258.320068359375,33,1203.0,8.578125,134.351318359375,28,844.0,22.40625,744.2333984375,44,2409.0,0
5,29.640625,1476.304443359375,38,2920.0,45.84375,3169.4052734375,36,4651.0,45.96875,3319.4912109375,40,4871.0,30.59375,1534.6787109375,38,2912.0,38.203125,2243.308349609375,35,3717.0,12.765625,247.609130859375,34,1310.0,9.359375,131.995849609375,28,818.0,26.09375,1065.53125,44,2740.0,0
6,26.421875,1279.154052734375,39,2629.0,43.984375,2836.837646484375,36,4322.0,46.015625,3260.993896484375,38,4847.0,26.765625,1266.726318359375,36,2632.0,37.703125,2322.300537109375,33,3598.0,12.59375,273.7490234375,38,1375.0,9.234375,138.570068359375,27,827.0,28.234375,1344.642333984375,37,2938.0,0
7,25.125,1115.02734375,39,2568.0,44.21875,2724.3818359375,39,4272.0,42.96875,2721.5380859375,41,4576.0,28.0625,1374.0849609375,32,2621.0,39.09375,2438.03125,37,3830.0,9.734375,181.359130859375,34,977.0,7.21875,88.4375,32,716.0,25.53125,1098.9365234375,37,2618.0,0
8,24.0,853.05859375,43,2420.0,40.09375,2465.83984375,41,4257.0,44.078125,2780.007568359375,45,4991.0,27.65625,1366.71875,36,2749.0,33.265625,1785.613037109375,39,3371.0,7.453125,117.450927734375,30,694.0,6.21875,63.5849609375,29,596.0,20.65625,696.3896484375,36,2069.0,0
9,25.359375,1081.388427734375,42,2668.0,38.4375,2315.5380859375,39,4044.0,40.1875,2347.2490234375,41,4143.0,24.578125,1069.181396484375,42,2570.0,30.359375,1512.347412109375,36,3111.0,8.734375,152.353271484375,32,852.0,6.03125,63.28125,25,553.0,19.46875,597.03125,33,2024.0,0
10,22.65625,881.609375,33,2227.0,42.359375,2593.423583984375,38,4465.0,30.890625,1464.913818359375,34,2734.0,25.640625,1128.761474609375,40,2718.0,29.890625,1544.413818359375,36,3089.0,8.53125,118.83984375,37,816.0,5.609375,58.134521484375,24,520.0,22.234375,711.345458984375,39,2306.0,0
11,22.671875,753.945068359375,35,2238.0,42.765625,2656.060302734375,36,4352.0,26.15625,1271.33984375,28,2273.0,24.453125,994.521240234375,35,2462.0,30.1875,1630.58984375,33,2906.0,7.390625,91.974365234375,36,736.0,5.09375,47.6005859375,25,501.0,19.6875,565.46875,40,2025.0,0
12,24.90625,936.640625,38,2602.0,44.640625,2846.433349609375,35,4300.0,30.90625,1713.5927734375,31,2918.0,24.125,953.2021484375,34,2444.0,32.09375,1742.234375,36,3231.0,7.09375,91.84375,37,696.0,5.609375,52.882568359375,31,540.0,18.453125,560.579833984375,33,1769.0,0
13,23.625,841.1630859375,30,2236.0,45.453125,2910.445068359375,36,4396.0,28.046875,1446.736083984375,30,2631.0,26.625,1053.2490234375,38,2683.0,29.578125,1428.794677734375,36,3038.0,7.421875,91.269287109375,36,744.0,6.40625,69.71484375,32,640.0,19.078125,624.173583984375,29,1858.0,0
14,25.75,1063.12109375,35,2546.0,43.046875,2885.372802734375,34,4200.0,20.921875,824.710693359375,25,1932.0,24.34375,971.8662109375,37,2547.0,25.703125,1163.849365234375,32,2704.0,8.15625,109.1787109375,32,848.0,5.84375,60.71875,32,584.0,23.515625,1007.144287109375,38,2610.0,0
15,24.578125,1143.105224609375,39,2539.0,43.078125,2857.714599609375,32,4000.0,29.96875,1678.7177734375,24,2708.0,25.53125,1324.0849609375,36,2734.0,30.3125,1858.4130859375,29,3074.0,9.84375,167.33984375,29,923.0,6.453125,69.605224609375,24,548.0,26.78125,1188.2724609375,39,2857.0,0
16,22.953125,1038.359130859375,34,2316.0,42.15625,2460.3818359375,34,3804.0,34.875,2110.140625,23,3059.0,24.03125,1162.58984375,36,2580.0,33.34375,2185.43359375,27,3205.0,10.34375,194.99609375,27,941.0,8.109375,112.419677734375,24,697.0,23.59375,936.671875,33,2297.0,0
17,22.078125,810.054443359375,36,2239.0,37.921875,2160.609130859375,35,3559.0,35.578125,2331.927490234375,29,3336.0,23.828125,1015.064208984375,36,2594.0,30.90625,1689.9443359375,33,3020.0,9.0,147.2880859375,32,862.0,6.953125,92.650146484375,31,658.0,24.46875,1068.03125,37,2565.0,0
18,19.15625,580.7880859375,39,2069.0,38.671875,2379.179443359375,38,3939.0,36.890625,2192.775146484375,37,3487.0,28.859375,1333.044677734375,36,2871.0,31.78125,1605.359375,35,2955.0,9.25,127.0224609375,35,912.0,5.609375,55.185302734375,34,589.0,22.4375,878.2802734375,42,2356.0,0
19,23.234375,851.152099609375,42,2489.0,42.359375,2670.523193359375,42,4338.0,29.65625,1261.078125,32,2631.0,27.515625,1155.923583984375,37,2593.0,33.0625,1743.9912109375,32,3090.0,8.703125,112.400146484375,33,887.0,5.625,53.7255859375,30,551.0,19.859375,648.273193359375,40,2037.0,0
20,27.546875,1083.882568359375,42,2831.0,39.171875,2371.464599609375,38,3980.0,29.5625,1446.875,30,2715.0,26.46875,1066.8505859375,36,2396.0,32.59375,1788.2880859375,33,3205.0,8.96875,116.953125,33,923.0,6.0625,60.953125,35,605.0,24.890625,1007.142333984375,38,2652.0,0
21,23.96875,941.0224609375,37,2433.0,32.96875,1840.96875,33,3323.0,28.0,1231.4755859375,25,2472.0,27.234375,1266.921630859375,36,2715.0,27.34375,1390.2255859375,34,2884.0,9.4375,123.37109375,29,878.0,6.09375,60.30859375,39,624.0,24.25,951.375,44,2671.0,0
22,24.09375,954.4052734375,34,2371.0,38.515625,2335.913818359375,42,4176.0,27.875,1422.62109375,23,2650.0,25.46875,1100.9365234375,38,2660.0,25.5625,1189.578125,27,2361.0,8.6875,114.671875,30,786.0,5.203125,44.956787109375,32,499.0,24.75,990.03125,48,2880.0,0
23,25.359375,998.638427734375,35,2659.0,41.25,2627.8125,42,4442.0,32.65625,1876.4052734375,28,3156.0,26.234375,1190.048583984375,40,2743.0,29.84375,1392.2802734375,30,2705.0,7.328125,94.847412109375,35,774.0,4.1875,31.27734375,31,414.0,24.5625,1002.03125,41,2818.0,0
24,21.734375,815.825927734375,37,2171.0,36.375,2032.3125,31,3362.0,32.765625,1620.349365234375,28,2854.0,26.4375,1248.3271484375,38,2722.0,29.390625,1301.724365234375,37,2904.0,7.703125,110.605224609375,32,801.0,4.921875,42.281005859375,33,474.0,22.71875,876.46875,40,2420.0,0
25,22.203125,926.933349609375,38,2200.0,34.65625,1700.8125,33,3136.0,35.515625,2116.292724609375,33,3609.0,22.671875,798.603271484375,31,2084.0,27.375,1187.234375,31,2659.0,8.578125,130.120849609375,37,935.0,5.625,49.2177734375,37,570.0,25.796875,1048.738037109375,44,2832.0,0
26,21.765625,917.120849609375,38,2270.0,35.609375,1903.997802734375,37,3567.0,30.6875,1730.59375,35,3334.0,22.46875,796.0302734375,29,2068.0,25.609375,1026.767333984375,37,2567.0,7.859375,99.702880859375,41,881.0,4.734375,34.546630859375,43,493.0,25.484375,998.304443359375,42,2784.0,0
27,19.203125,648.872802734375,36,2002.0,38.453125,2197.325927734375,39,4012.0,26.046875,1099.009521484375,31,2554.0,23.390625,869.134521484375,38,2379.0,26.09375,1022.9521484375,44,2795.0,6.9375,72.4052734375,37,762.0,4.6875,35.02734375,36,484.0,25.09375,985.984375,44,2799.0,0
28,20.296875,650.616943359375,32,2038.0,32.328125,1552.833740234375,35,3228.0,28.75,1231.7646484375,30,2606.0,21.6875,800.3896484375,41,2382.0,27.203125,1165.027099609375,36,2617.0,6.546875,67.853271484375,34,685.0,5.03125,41.1083984375,27,481.0,22.875,899.7568359375,41,2514.0,0
29,21.28125,681.7177734375,32,2029.0,31.1875,1455.7802734375,34,3064.0,25.890625,949.292724609375,29,2297.0,24.34375,1052.8125,35,2456.0,29.796875,1394.226318359375,30,2612.0,6.375,64.875,35,612.0,5.15625,42.5224609375,23,447.0,18.640625,665.048583984375,34,1937.0,0
30,21.0,718.8818359375,35,2051.0,33.046875,1694.400146484375,31,3194.0,25.0625,1273.58984375,34,2576.0,24.640625,1053.523193359375,33,2334.0,30.46875,1454.9287109375,37,2987.0,6.859375,70.573974609375,33,616.0,5.09375,39.5771484375,24,449.0,18.96875,611.8271484375,38,1988.0,0
31,19.265625,663.132568359375,41,2018.0,35.453125,2024.989990234375,36,3444.0,24.6875,1234.90234375,32,2583.0,21.53125,874.4052734375,36,2241.0,29.109375,1474.359130859375,43,3183.0,8.171875,99.665771484375,30,711.0,5.671875,46.628662109375,31,507.0,24.484375,1034.933349609375,40,2662.0,0
32,17.609375,560.882568359375,43,1955.0,37.5,2210.078125,40,3895.0,26.96875,1245.609375,34,2602.0,24.828125,1157.642333984375,36,2602.0,33.890625,1897.802490234375,39,3571.0,7.21875,83.77734375,32,692.0,5.453125,43.279052734375,31,475.0,24.328125,1023.763427734375,36,2522.0,0
33,19.625,734.43359375,39,2172.0,36.640625,2294.261474609375,39,4161.0,30.296875,1678.931396484375,29,2673.0,26.828125,1376.021240234375,34,2792.0,35.0625,1986.52734375,37,3644.0,6.71875,71.796875,33,620.0,4.59375,34.1005859375,28,410.0,21.0,769.83984375,37,2193.0,0
34,23.265625,840.970458984375,40,2514.0,41.28125,2671.7021484375,40,4598.0,26.0625,1323.77734375,24,2319.0,23.671875,1058.552490234375,36,2498.0,31.21875,1627.5146484375,39,3341.0,6.703125,77.167724609375,26,620.0,4.984375,43.638427734375,31,487.0,19.5625,731.87109375,39,2120.0,0
35,21.140625,752.685302734375,39,2304.0,36.921875,2104.109130859375,40,4000.0,22.453125,921.267333984375,27,2158.0,25.0,1103.77734375,42,2735.0,31.0625,1530.77734375,42,3379.0,6.1875,67.4599609375,25,636.0,4.640625,36.222412109375,35,478.0,22.390625,989.337646484375,39,2469.0,0
36,18.453125,651.923583984375,36,1945.0,32.625,1720.43359375,38,3248.0,22.46875,790.6787109375,27,2076.0,32.46875,1784.015625,43,3646.0,33.953125,1779.646240234375,45,3813.0,5.578125,52.972412109375,25,561.0,3.890625,22.906005859375,33,386.0,24.125,999.4755859375,36,2535.0,0
37,18.8125,557.8349609375,43,2049.0,38.828125,2181.697021484375,36,3868.0,21.828125,763.363037109375,31,2080.0,28.546875,1413.478271484375,38,2956.0,25.75,1190.83984375,44,2787.0,6.0,59.40234375,28,590.0,4.0,23.9599609375,33,390.0,23.6875,876.9130859375,39,2479.0,0
38,18.421875,571.279052734375,40,1906.0,32.9375,1716.02734375,35,3376.0,26.1875,1303.3349609375,31,2378.0,22.78125,876.2880859375,37,2202.0,23.59375,1056.4677734375,36,2320.0,6.828125,71.585693359375,30,642.0,4.46875,29.5302734375,33,416.0,20.84375,811.08984375,39,2310.0,0
39,17.421875,554.548583984375,40,1931.0,27.0625,1283.921875,39,2964.0,28.171875,1409.915771484375,28,2504.0,25.890625,1014.974365234375,45,2703.0,28.578125,1386.782958984375,35,2774.0,6.53125,60.2958984375,37,656.0,4.625,33.640625,28,440.0,15.640625,434.419677734375,38,1714.0,0
40,18.4375,624.46484375,42,2153.0,33.515625,1878.898193359375,38,3543.0,21.4375,875.3740234375,36,2242.0,27.75,1254.6943359375,42,3060.0,30.171875,1423.843505859375,39,3162.0,6.90625,71.40234375,41,713.0,4.59375,32.7021484375,33,477.0,21.78125,902.1396484375,40,2450.0,0
41,15.921875,591.195068359375,38,1696.0,27.09375,1480.8037109375,29,2711.0,20.9375,968.765625,41,2358.0,29.140625,1503.519287109375,32,2947.0,25.4375,1137.5380859375,37,2750.0,7.296875,78.835693359375,37,713.0,4.515625,31.650146484375,39,471.0,19.375,933.3974609375,31,2145.0,0
42,8.203125,204.038818359375,32,750.0,14.8125,501.08984375,25,1296.0,22.578125,957.488037109375,41,2421.0,39.84375,2320.140625,37,4015.0,18.015625,530.152099609375,35,1856.0,7.140625,73.062255859375,34,702.0,4.640625,32.103271484375,37,447.0,7.765625,241.857177734375,28,778.0,0
43,6.03125,63.8818359375,34,568.0,12.921875,263.480224609375,30,1131.0,22.40625,837.1005859375,34,2219.0,42.953125,2661.654052734375,38,4315.0,17.265625,468.386474609375,38,1786.0,7.265625,83.943115234375,34,755.0,4.6875,32.9912109375,32,446.0,6.140625,94.781005859375,34,640.0,1
44,5.9375,64.58984375,39,581.0,11.609375,257.179443359375,31,1101.0,19.921875,645.011474609375,25,1819.0,44.1875,3157.78125,35,4286.0,16.53125,452.1943359375,39,1726.0,7.265625,81.273193359375,35,704.0,4.15625,28.99609375,26,404.0,6.9375,113.87109375,33,721.0,1
45,5.359375,45.775146484375,32,473.0,11.078125,222.425537109375,26,949.0,18.625,614.296875,27,1590.0,41.40625,2917.9287109375,37,4271.0,15.265625,354.652099609375,30,1475.0,6.34375,57.18359375,30,552.0,3.671875,22.870849609375,24,344.0,5.859375,71.775146484375,29,570.0,1
46,5.171875,40.189208984375,34,507.0,12.046875,220.491943359375,30,1100.0,22.140625,789.368896484375,27,1689.0,39.421875,2553.193115234375,34,3974.0,14.8125,339.3125,33,1471.0,4.9375,36.2099609375,32,464.0,3.578125,21.577880859375,24,357.0,7.0,118.5615234375,32,732.0,1
47,4.9375,33.65625,36,473.0,12.515625,243.144287109375,33,1155.0,21.765625,770.864990234375,24,1772.0,51.75,3875.59375,42,5630.0,14.71875,318.27734375,36,1487.0,5.453125,45.988037109375,31,540.0,3.8125,22.4677734375,26,380.0,7.171875,127.536865234375,30,707.0,1
48,5.265625,39.138427734375,35,520.0,13.09375,257.5380859375,34,1183.0,17.6875,565.6943359375,32,1728.0,45.953125,3297.765380859375,39,4982.0,14.1875,325.8740234375,35,1497.0,6.765625,70.144287109375,31,677.0,4.765625,39.138427734375,36,516.0,6.578125,97.902099609375,33,713.0,1
49,5.875,51.8662109375,33,587.0,14.046875,331.466552734375,33,1270.0,17.171875,416.769287109375,37,1668.0,37.90625,2310.0380859375,33,3806.0,16.34375,481.328125,36,1652.0,6.6875,74.734375,31,614.0,4.90625,43.12109375,32,516.0,6.125,70.9677734375,38,685.0,1
50,6.171875,60.011474609375,29,596.0,14.078125,379.206787109375,35,1360.0,18.78125,581.7412109375,32,1794.0,39.125,2515.5615234375,35,3824.0,14.671875,392.238037109375,41,1458.0,5.140625,51.329833984375,29,487.0,4.078125,26.786865234375,23,383.0,5.734375,64.214599609375,38,626.0,1
51,7.125,76.52734375,36,731.0,15.453125,414.710693359375,41,1662.0,21.4375,796.78125,31,2058.0,42.1875,3069.9375,28,3870.0,14.796875,406.128662109375,37,1530.0,6.15625,71.7333984375,36,675.0,4.734375,35.570068359375,33,486.0,7.03125,87.7646484375,37,770.0,1
52,7.09375,77.5458984375,38,730.0,17.109375,469.064208984375,38,1838.0,21.484375,808.935302734375,31,2158.0,49.328125,3605.189208984375,31,4427.0,20.640625,863.495849609375,36,2215.0,7.90625,111.0302734375,40,867.0,5.140625,44.009521484375,38,556.0,7.78125,99.9365234375,37,863.0,1
53,6.15625,62.0068359375,36,651.0,16.84375,461.171875,38,1770.0,18.203125,575.288818359375,32,1818.0,46.328125,3059.062255859375,34,4213.0,22.46875,919.40234375,40,2328.0,7.0,88.0625,39,761.0,4.5625,36.546875,35,487.0,6.328125,78.109130859375,31,661.0,1
54,6.90625,73.4599609375,37,751.0,17.0625,467.609375,35,1724.0,18.203125,580.036865234375,38,1830.0,47.109375,3445.159912109375,36,4861.0,20.140625,638.814208984375,36,2108.0,7.921875,91.685302734375,36,805.0,4.59375,33.296875,35,478.0,6.015625,74.646240234375,27,600.0,1
55,6.40625,65.7177734375,33,682.0,14.375,325.0771484375,37,1496.0,19.78125,741.49609375,35,2002.0,48.8125,3674.2724609375,40,5220.0,19.640625,628.950927734375,37,2182.0,8.5625,106.33984375,36,872.0,4.9375,36.0927734375,39,510.0,7.4375,100.27734375,31,799.0,1
56,5.359375,49.486083984375,29,565.0,13.828125,322.031005859375,38,1465.0,18.796875,620.050537109375,37,1884.0,49.3125,3681.9287109375,38,4980.0,22.078125,758.091552734375,42,2494.0,7.859375,92.236083984375,40,839.0,4.734375,34.163818359375,38,498.0,6.921875,82.085693359375,33,762.0,1
57,6.5,67.9375,34,663.0,16.171875,450.489990234375,34,1640.0,23.234375,867.878662109375,35,2066.0,48.953125,3563.103271484375,32,4813.0,20.265625,657.665771484375,43,2290.0,6.8125,71.52734375,36,693.0,4.421875,29.325927734375,27,423.0,7.1875,92.49609375,34,776.0,1
58,6.734375,75.433349609375,34,687.0,14.9375,382.359375,35,1503.0,25.046875,932.480224609375,32,2175.0,44.078125,2892.220458984375,28,3881.0,18.15625,584.96484375,44,2034.0,6.078125,59.259521484375,40,627.0,4.296875,29.099365234375,30,411.0,8.796875,171.845458984375,38,932.0,1
59,5.796875,58.384521484375,32,609.0,14.1875,345.62109375,32,1337.0,22.765625,840.861083984375,34,2089.0,44.84375,3145.24609375,32,4031.0,18.125,585.21484375,36,1918.0,6.203125,58.673583984375,37,597.0,3.640625,20.765380859375,30,323.0,9.234375,186.382568359375,37,983.0,1
60,5.453125,48.396240234375,37,609.0,14.78125,360.046875,34,1478.0,19.75,687.1474609375,30,1786.0,41.078125,2619.763427734375,37,3938.0,15.453125,418.460693359375,33,1585.0,5.734375,54.454833984375,30,570.0,3.078125,14.253662109375,27,269.0,9.03125,158.0537109375,34,1003.0,1
61,6.09375,60.6318359375,36,656.0,14.09375,290.1474609375,35,1366.0,16.59375,383.5771484375,31,1382.0,35.296875,1956.189208984375,34,3379.0,13.21875,308.4287109375,35,1291.0,4.96875,46.40625,30,532.0,3.96875,26.84375,28,384.0,9.296875,176.626708984375,36,1051.0,1
62,6.234375,66.282958984375,31,628.0,12.46875,245.93359375,32,1236.0,16.96875,409.4443359375,35,1505.0,37.796875,2204.546630859375,28,3337.0,14.515625,331.226318359375,32,1366.0,6.03125,68.84375,37,677.0,4.796875,37.597412109375,27,476.0,8.953125,159.769287109375,34,958.0,1
63,5.40625,51.8818359375,35,578.0,12.234375,254.816162109375,34,1275.0,15.796875,335.101318359375,31,1342.0,39.6875,2267.65234375,29,3470.0,16.3125,418.5,31,1570.0,6.78125,76.99609375,34,695.0,4.1875,31.02734375,27,433.0,8.125,142.0224609375,30,819.0,1
64,5.28125,43.1787109375,40,574.0,12.453125,271.554443359375,39,1269.0,17.515625,455.230224609375,25,1466.0,42.203125,2611.261474609375,36,4043.0,16.078125,430.025146484375,33,1572.0,5.65625,45.90234375,34,548.0,3.4375,20.99609375,26,349.0,6.8125,102.6943359375,31,684.0,1
65,6.046875,56.491943359375,38,632.0,12.296875,255.409912109375,39,1252.0,21.78125,823.7958984375,33,2127.0,43.765625,2925.109130859375,32,3962.0,14.984375,404.253662109375,38,1565.0,5.109375,40.142333984375,38,537.0,3.59375,21.3349609375,28,365.0,7.34375,127.4521484375,33,801.0,1
66,5.53125,49.4599609375,34,554.0,12.453125,239.579833984375,35,1233.0,21.375,790.9287109375,35,2187.0,44.140625,3014.441162109375,33,4392.0,14.390625,384.605224609375,43,1609.0,4.578125,36.529052734375,29,465.0,3.140625,17.786865234375,28,328.0,6.796875,113.796630859375,33,740.0,1
67,5.078125,40.189208984375,31,490.0,12.046875,233.288818359375,29,1083.0,16.515625,458.689208984375,30,1564.0,39.0,2330.734375,38,3938.0,15.421875,392.122802734375,42,1644.0,4.84375,35.53125,28,456.0,2.78125,13.99609375,27,273.0,5.40625,39.96484375,35,508.0,1
68,5.34375,42.8974609375,37,564.0,10.59375,193.4443359375,29,972.0,18.875,617.2333984375,38,1939.0,31.125,1365.40234375,40,3179.0,13.234375,308.290771484375,41,1356.0,4.921875,38.236083984375,34,475.0,2.5625,12.359375,26,247.0,5.265625,39.460693359375,38,520.0,1
69,5.328125,39.579833984375,39,547.0,10.328125,168.773193359375,37,951.0,18.53125,607.3505859375,37,1916.0,40.265625,2364.036865234375,36,3833.0,11.375,243.1552734375,43,1268.0,4.375,33.6875,35,476.0,2.5625,10.55859375,27,253.0,5.015625,43.198974609375,33,536.0,1
70,4.875,34.43359375,34,510.0,9.921875,153.531005859375,38,989.0,15.171875,387.630615234375,33,1496.0,43.421875,2920.357177734375,31,4093.0,13.59375,410.203125,35,1504.0,5.15625,42.55859375,32,531.0,3.015625,13.427490234375,35,307.0,4.59375,37.7412109375,31,488.0,1
71,4.8125,38.4912109375,32,493.0,10.53125,185.7958984375,37,1041.0,19.109375,661.439208984375,32,2067.0,36.953125,2194.613037109375,34,3692.0,13.71875,402.6083984375,36,1477.0,5.8125,51.390625,33,612.0,2.9375,16.078125,29,307.0,4.109375,32.364990234375,31,418.0,1
72,5.578125,48.296630859375,35,560.0,11.703125,219.583740234375,37,1187.0,20.59375,719.40234375,34,2063.0,34.234375,1776.931396484375,35,3267.0,12.8125,274.6162109375,38,1315.0,5.375,45.453125,33,539.0,3.21875,18.8505859375,24,338.0,4.453125,37.609130859375,32,476.0,1
73,5.25,39.2021484375,32,483.0,9.828125,169.111083984375,33,952.0,17.71875,498.02734375,30,1668.0,37.484375,2266.189208984375,32,3350.0,12.46875,285.5068359375,33,1249.0,4.96875,36.52734375,31,474.0,3.125,14.9375,26,287.0,4.5,33.9208984375,33,461.0,1
74,4.65625,35.8193359375,27,417.0,9.15625,177.9833984375,33,917.0,17.59375,508.0615234375,29,1612.0,37.40625,2287.30859375,33,3263.0,12.671875,270.745849609375,34,1238.0,5.046875,38.113037109375,27,483.0,3.3125,16.9677734375,25,277.0,4.25,29.328125,29,397.0,1
75,4.5,37.1005859375,31,438.0,9.40625,176.21484375,36,996.0,17.59375,520.46484375,32,1595.0,32.421875,1692.462646484375,40,3163.0,12.84375,244.515625,35,1227.0,4.71875,38.5224609375,26,467.0,3.65625,23.90234375,26,349.0,4.25,30.3974609375,30,406.0,1
76,4.640625,36.667724609375,33,487.0,9.390625,147.187255859375,37,991.0,19.953125,781.368896484375,31,1927.0,32.859375,1824.825927734375,42,3267.0,15.671875,397.950927734375,35,1505.0,5.578125,53.669677734375,28,543.0,4.171875,30.577880859375,31,416.0,4.75,37.0615234375,28,443.0,1
77,4.734375,46.800537109375,27,501.0,10.1875,181.234375,32,1066.0,19.8125,752.4375,33,1949.0,36.859375,2301.812255859375,39,3716.0,14.75,383.77734375,36,1419.0,5.796875,54.739990234375,28,517.0,4.390625,35.083740234375,26,417.0,5.328125,47.878662109375,25,490.0,1
78,4.25,40.828125,24,443.0,9.625,168.87109375,34,1043.0,17.59375,533.8505859375,29,1743.0,44.8125,3198.8349609375,37,4547.0,11.0625,191.40625,33,1052.0,4.6875,35.6787109375,34,454.0,3.40625,24.27734375,24,344.0,5.375,49.2880859375,30,510.0,1
79,3.90625,24.75,28,416.0,7.625,99.453125,29,789.0,17.078125,517.070068359375,24,1736.0,45.296875,3233.144287109375,37,4604.0,9.625,138.25,32,949.0,4.125,27.9755859375,35,445.0,2.65625,10.8037109375,33,285.0,5.171875,46.599365234375,37,551.0,1
80,3.609375,21.433349609375,34,379.0,7.59375,84.5146484375,27,691.0,15.359375,382.978271484375,28,1467.0,35.25,1995.1630859375,36,3644.0,9.375,138.4365234375,31,927.0,4.140625,32.593505859375,25,410.0,3.046875,15.099365234375,30,287.0,4.90625,53.2646484375,38,518.0,1
81,3.859375,27.861083984375,30,397.0,9.078125,129.534912109375,32,858.0,16.015625,377.118896484375,32,1528.0,32.203125,1641.439208984375,34,3292.0,13.390625,312.222412109375,35,1388.0,5.875,63.7412109375,22,558.0,7.65625,214.80859375,25,692.0,6.578125,103.570068359375,34,637.0,1
82,4.875,36.3974609375,32,497.0,9.671875,144.800537109375,36,954.0,15.640625,378.583740234375,26,1478.0,34.75,1937.9599609375,38,3570.0,13.09375,294.6630859375,37,1360.0,7.359375,94.937255859375,31,706.0,28.328125,1768.017333984375,38,3117.0,18.421875,758.066162109375,34,1944.0,1
83,7.390625,89.872802734375,40,810.0,10.703125,158.025146484375,34,890.0,16.53125,457.87109375,25,1692.0,31.5,1667.578125,42,3444.0,10.3125,168.58984375,32,1053.0,7.859375,108.568115234375,30,731.0,46.90625,3524.046875,38,5244.0,36.640625,2383.095458984375,39,4100.0,2
84,11.0625,181.52734375,42,1265.0,12.296875,212.031005859375,30,984.0,23.546875,1000.249755859375,33,2375.0,28.46875,1393.0625,39,2950.0,12.0,274.546875,36,1265.0,13.546875,380.382568359375,38,1491.0,57.640625,4708.009521484375,33,5971.0,50.671875,3936.788818359375,36,5295.0,2
85,11.015625,186.220458984375,34,1189.0,12.609375,280.277099609375,33,1276.0,27.734375,1316.181396484375,38,2713.0,26.421875,1207.034912109375,33,2472.0,17.234375,557.220458984375,34,1725.0,17.953125,545.730224609375,47,2010.0,60.21875,4872.828125,33,5894.0,53.953125,4305.904052734375,33,5172.0,2
86,8.4375,124.6875,33,895.0,13.953125,345.542724609375,35,1442.0,22.859375,834.396240234375,38,2193.0,28.296875,1411.099365234375,35,2934.0,17.125,516.0068359375,33,1717.0,15.6875,384.9599609375,45,1680.0,53.546875,4135.714599609375,35,5506.0,46.96875,3563.40234375,30,4516.0,2
87,7.875,105.6240234375,36,855.0,12.6875,260.796875,32,1146.0,17.71875,500.03125,36,1753.0,28.5625,1367.578125,39,3000.0,12.359375,246.218505859375,36,1285.0,12.859375,284.993896484375,40,1386.0,43.859375,3041.318115234375,34,4412.0,40.984375,2622.415771484375,34,4179.0,2
88,8.28125,122.7021484375,31,870.0,8.921875,134.302490234375,29,803.0,16.484375,465.782958984375,31,1608.0,24.5,916.8662109375,40,2565.0,12.375,256.5068359375,39,1346.0,11.265625,218.845458984375,38,1208.0,31.875,1691.3125,35,2988.0,36.5,2060.77734375,36,3629.0,2
89,7.921875,149.409912109375,31,825.0,7.640625,106.726318359375,30,730.0,20.46875,707.25,34,1988.0,26.515625,1206.314208984375,37,2800.0,13.75,322.3818359375,42,1488.0,12.140625,269.402099609375,35,1249.0,42.421875,2926.566162109375,36,4057.0,39.375,2277.77734375,33,3645.0,2
90,7.515625,129.771240234375,33,815.0,8.765625,127.991943359375,29,794.0,21.609375,757.343505859375,34,1962.0,31.5,1748.2568359375,34,3366.0,11.59375,231.8193359375,35,1076.0,11.140625,249.236083984375,34,1139.0,44.015625,3058.935302734375,33,4163.0,42.34375,2573.83984375,37,4257.0,2
91,8.328125,119.909912109375,38,920.0,9.125,128.4990234375,30,878.0,19.75,643.37109375,34,1832.0,33.578125,1820.415771484375,38,3570.0,10.609375,179.605224609375,38,1034.0,9.4375,146.03125,37,956.0,35.40625,1901.3271484375,32,3119.0,39.203125,2574.656005859375,38,4107.0,2
92,9.453125,151.570068359375,43,1065.0,8.40625,119.1787109375,32,836.0,15.734375,503.222412109375,33,1491.0,26.59375,1176.28125,38,2768.0,10.296875,177.120849609375,38,1072.0,9.3125,137.5771484375,37,939.0,33.65625,1898.05859375,32,3133.0,38.578125,2548.769287109375,37,3780.0,2
93,8.5,134.2724609375,42,953.0,8.328125,123.683349609375,31,820.0,14.375,392.890625,31,1322.0,25.921875,1151.152099609375,36,2579.0,8.96875,146.7490234375,35,947.0,9.125,147.5,37,943.0,37.734375,2448.997802734375,34,3933.0,36.296875,1995.304443359375,37,3439.0,2
94,7.828125,120.072021484375,38,872.0,7.65625,101.7802734375,31,767.0,17.609375,610.904052734375,28,1771.0,32.09375,1732.8125,36,3388.0,10.046875,173.632568359375,34,978.0,9.734375,182.950927734375,35,1007.0,44.984375,3064.517333984375,40,4845.0,32.0625,1524.046875,36,3044.0,2
95,5.953125,71.974365234375,35,635.0,6.390625,72.417724609375,31,652.0,18.0625,542.2412109375,30,1770.0,31.640625,1925.267333984375,38,3523.0,11.890625,238.738037109375,32,1208.0,9.03125,149.9990234375,37,950.0,36.75,2277.46484375,40,4096.0,33.21875,2067.96484375,36,3315.0,2
96,5.171875,47.882568359375,34,485.0,6.390625,67.204833984375,32,629.0,18.09375,448.171875,32,1615.0,35.296875,2261.447021484375,39,3881.0,10.203125,198.310302734375,34,1066.0,7.84375,93.93359375,38,846.0,31.59375,1803.2021484375,35,3462.0,38.0625,2635.3662109375,36,3842.0,2
97,6.4375,74.390625,36,662.0,7.703125,109.501708984375,36,781.0,19.25,497.375,26,1449.0,36.03125,2172.703125,39,4019.0,8.328125,111.710693359375,40,873.0,7.875,109.90234375,34,807.0,34.9375,1932.2646484375,34,3376.0,38.40625,2417.93359375,40,3995.0,2
98,6.53125,73.046875,34,704.0,8.515625,128.484130859375,37,931.0,17.625,408.0068359375,24,1314.0,31.3125,1578.62109375,40,3367.0,8.953125,136.921630859375,38,881.0,7.9375,113.1630859375,34,777.0,33.71875,1833.3505859375,36,3314.0,33.640625,1902.228271484375,36,3393.0,2
99,6.1875,60.12109375,34,660.0,8.0625,106.7724609375,37,879.0,16.296875,402.929443359375,28,1536.0,31.75,1550.078125,36,3237.0,8.796875,134.198974609375,30,803.0,6.859375,78.113037109375,30,607.0,31.546875,1770.986083984375,39,3500.0,35.484375,2207.337646484375,33,3709.0,2
100,4.96875,45.9833984375,27,464.0,7.625,124.1708984375,38,847.0,14.921875,381.470458984375,26,1476.0,27.84375,1394.5458984375,37,2923.0,9.734375,134.087646484375,30,873.0,6.046875,58.945068359375,28,547.0,28.546875,1474.925537109375,42,3181.0,33.21875,2101.3740234375,31,3393.0,2
101,6.59375,84.6083984375,35,720.0,8.1875,139.1474609375,36,899.0,12.765625,257.118896484375,28,1186.0,25.53125,1107.87109375,39,2678.0,9.515625,125.646240234375,33,902.0,6.34375,68.4912109375,36,641.0,26.828125,1234.581787109375,39,2707.0,31.875,1928.2021484375,27,2989.0,2
102,7.59375,96.765625,41,838.0,7.140625,90.980224609375,33,741.0,16.390625,410.156005859375,33,1549.0,25.078125,988.406005859375,34,2344.0,9.46875,167.453125,29,964.0,8.046875,121.452880859375,40,867.0,39.140625,2411.544677734375,43,4205.0,43.84375,2951.3427734375,31,3958.0,2
103,6.15625,65.9521484375,38,656.0,7.140625,80.027099609375,30,652.0,17.25,476.8583984375,33,1715.0,29.265625,1452.198974609375,34,2850.0,9.703125,178.263427734375,32,984.0,7.75,109.74609375,38,824.0,38.609375,2343.171630859375,45,4253.0,42.046875,2908.960693359375,35,3849.0,2
104,7.078125,82.363037109375,41,741.0,9.0625,137.2490234375,34,917.0,13.5,286.9677734375,31,1420.0,33.6875,1863.0302734375,33,3412.0,8.390625,120.894287109375,33,805.0,5.609375,51.220458984375,36,577.0,27.390625,1247.265380859375,42,2982.0,39.125,2617.02734375,33,3687.0,2
105,7.578125,95.458740234375,39,805.0,9.46875,145.1162109375,34,953.0,13.65625,291.7412109375,29,1331.0,25.03125,1130.6318359375,38,2588.0,8.25,120.8505859375,32,844.0,5.484375,47.505615234375,35,572.0,33.0,1830.9912109375,43,3528.0,39.40625,2306.1875,37,3770.0,2
106,5.984375,63.921630859375,38,647.0,8.625,109.390625,30,773.0,15.0,315.27734375,25,1231.0,22.421875,785.782958984375,42,2410.0,7.4375,91.40234375,33,718.0,5.890625,52.337646484375,35,613.0,38.40625,2311.671875,43,4028.0,37.359375,2043.411865234375,39,3436.0,2
107,5.984375,63.849365234375,40,668.0,7.796875,111.070068359375,34,824.0,16.5,384.9130859375,27,1423.0,24.65625,917.4833984375,35,2480.0,6.890625,73.484130859375,31,647.0,6.671875,63.380615234375,35,674.0,36.359375,2094.585693359375,41,4025.0,37.921875,2204.976318359375,39,3647.0,2
108,7.046875,87.083740234375,38,763.0,7.328125,112.113037109375,33,846.0,16.421875,425.271240234375,30,1517.0,25.46875,1047.40234375,32,2416.0,7.453125,93.470458984375,31,766.0,6.265625,55.322021484375,28,586.0,31.375,1667.21875,38,3366.0,37.234375,2181.075927734375,41,3983.0,2
109,6.953125,93.636474609375,34,737.0,7.578125,113.019287109375,28,791.0,13.84375,314.5771484375,34,1287.0,27.4375,1206.546875,36,2817.0,7.296875,86.271240234375,33,765.0,5.453125,46.386474609375,27,527.0,34.71875,2132.71484375,37,3604.0,38.0,2452.6318359375,42,4208.0,2
110,7.046875,93.741943359375,33,765.0,7.046875,93.997802734375,30,732.0,17.34375,492.078125,41,1887.0,26.421875,1124.116943359375,43,2881.0,7.953125,105.474365234375,36,850.0,6.9375,75.328125,33,676.0,41.6875,2748.4677734375,40,4487.0,36.078125,2443.882568359375,37,3759.0,2
111,6.046875,63.888427734375,33,602.0,7.484375,87.808349609375,31,701.0,16.28125,437.4365234375,30,1583.0,26.03125,1123.3427734375,42,2854.0,8.234375,112.847412109375,34,825.0,6.359375,64.042724609375,36,604.0,35.140625,2064.140380859375,40,3803.0,31.65625,1763.5224609375,34,2942.0,2
112,5.484375,53.195068359375,31,564.0,8.546875,102.208740234375,26,712.0,12.109375,224.558349609375,22,1054.0,24.296875,1024.698974609375,38,2589.0,8.765625,116.753662109375,35,870.0,5.09375,42.9912109375,35,525.0,28.53125,1600.1396484375,36,3058.0,30.390625,1681.357177734375,36,2937.0,2
113,5.796875,56.419677734375,32,605.0,6.921875,77.857177734375,30,646.0,12.28125,242.09375,30,1105.0,24.265625,945.439208984375,40,2471.0,9.0,123.9052734375,34,827.0,5.6875,53.28125,34,576.0,29.390625,1579.577880859375,38,3135.0,30.234375,1727.236083984375,40,3137.0,2
114,4.765625,35.892333984375,40,521.0,5.84375,69.37109375,31,591.0,13.3125,380.24609375,30,1297.0,24.5625,937.4755859375,37,2494.0,7.515625,88.296630859375,39,713.0,6.265625,64.693115234375,37,649.0,31.046875,1620.864990234375,40,3418.0,27.703125,1321.978271484375,37,2893.0,2
115,3.953125,23.183349609375,34,405.0,5.96875,62.953125,35,599.0,12.734375,344.226318359375,30,1311.0,22.03125,726.9599609375,40,2318.0,7.65625,84.77734375,41,793.0,6.390625,67.763427734375,34,684.0,29.4375,1471.8974609375,38,3244.0,29.1875,1369.4052734375,37,2993.0,2
116,3.5,21.71875,29,339.0,6.4375,66.6552734375,36,599.0,12.078125,224.421630859375,29,1089.0,22.203125,762.734130859375,40,2280.0,8.46875,103.6552734375,37,807.0,6.03125,57.8115234375,28,576.0,25.859375,1213.363037109375,35,2666.0,25.21875,1150.7802734375,36,2443.0,2
117,3.6875,25.5,32,361.0,6.484375,69.292724609375,32,638.0,14.4375,282.1474609375,34,1347.0,20.65625,715.328125,35,2007.0,8.859375,124.562255859375,36,829.0,6.578125,74.400146484375,30,640.0,26.25,1286.9365234375,37,2755.0,19.34375,790.43359375,31,1856.0,2
118,4.5625,45.2099609375,32,464.0,7.84375,130.109375,35,832.0,14.015625,264.689208984375,30,1294.0,20.296875,707.294677734375,35,1987.0,8.6875,143.6875,35,842.0,6.71875,80.171875,29,626.0,24.59375,1124.078125,38,2661.0,22.34375,948.30859375,35,2307.0,2
119,4.484375,43.138427734375,33,491.0,7.828125,131.880615234375,35,825.0,12.796875,227.402099609375,23,1107.0,24.640625,1039.212646484375,41,2403.0,7.90625,122.18359375,28,689.0,6.03125,68.375,22,510.0,24.5625,1171.4208984375,41,2424.0,21.703125,945.753662109375,40,2396.0,2
120,4.078125,24.630615234375,35,435.0,7.140625,85.462646484375,37,783.0,13.140625,225.005615234375,27,1125.0,27.921875,1426.784912109375,37,3028.0,10.046875,177.163818359375,28,933.0,6.5625,84.609375,24,624.0,32.1875,1862.3115234375,38,3111.0,21.34375,855.3349609375,41,2335.0,2
121,4.875,41.0458984375,32,515.0,8.484375,116.357177734375,38,871.0,13.921875,271.290771484375,32,1209.0,26.9375,1297.03125,35,2930.0,9.046875,160.101318359375,23,856.0,6.1875,72.1162109375,34,583.0,33.296875,1925.622802734375,39,3486.0,23.0625,922.625,46,2566.0,2
122,5.90625,69.484375,31,641.0,8.5,110.96484375,29,783.0,14.96875,305.1005859375,28,1337.0,23.078125,796.382568359375,38,2331.0,6.28125,73.96484375,28,644.0,5.796875,62.068115234375,37,600.0,32.296875,1744.941162109375,42,3488.0,26.328125,1390.861083984375,43,2986.0,2
123,8.3125,143.46484375,35,869.0,19.171875,885.626708984375,24,1734.0,22.09375,913.71484375,32,2086.0,36.25,2335.5068359375,32,3429.0,15.1875,517.4677734375,34,1477.0,8.25,125.6083984375,35,827.0,24.453125,1185.435302734375,42,2449.0,19.109375,980.523193359375,34,2070.0,2
124,11.6875,275.4287109375,36,1283.0,29.921875,1565.427490234375,31,2886.0,30.125,1419.0693359375,31,2514.0,54.25,4138.77734375,27,4422.0,21.796875,804.363037109375,29,2113.0,9.765625,158.693115234375,34,968.0,9.953125,266.923583984375,41,999.0,7.0,88.6708984375,36,704.0,2
125,14.0625,353.4130859375,37,1547.0,33.21875,1828.671875,40,3501.0,36.09375,1978.40625,26,3136.0,59.109375,4473.880615234375,29,4638.0,26.125,1101.30859375,35,2543.0,12.34375,276.3427734375,35,1310.0,7.734375,113.794677734375,34,879.0,7.78125,102.7958984375,41,840.0,3
126,16.296875,482.001708984375,36,1812.0,40.984375,2676.118896484375,40,4217.0,35.203125,2117.751708984375,33,3397.0,65.390625,5150.997802734375,28,4563.0,33.03125,1643.4599609375,39,3324.0,15.203125,395.941162109375,37,1630.0,9.359375,162.915771484375,30,989.0,9.75,162.02734375,38,1052.0,3
127,15.234375,465.499755859375,36,1685.0,43.203125,2841.101318359375,31,4040.0,32.421875,1885.636474609375,29,3015.0,59.9375,4855.8037109375,31,4557.0,29.71875,1382.578125,28,2816.0,14.28125,340.71875,33,1393.0,9.671875,168.376708984375,32,940.0,8.40625,124.74609375,33,838.0,3
128,14.03125,329.8896484375,33,1385.0,43.203125,2666.421630859375,32,3979.0,35.953125,2146.374755859375,29,3351.0,52.015625,4049.870849609375,43,5386.0,33.109375,1647.017333984375,24,2982.0,17.25,472.40625,29,1634.0,10.84375,185.7177734375,31,1013.0,9.875,154.3505859375,31,912.0,3
129,15.21875,360.3193359375,31,1377.0,37.53125,2164.49609375,32,3561.0,30.734375,1587.874755859375,40,3210.0,53.140625,3973.329833984375,37,4996.0,36.015625,1892.661865234375,29,3486.0,18.640625,540.419677734375,29,1809.0,9.3125,149.75,29,882.0,11.078125,183.070068359375,30,998.0,3
130,15.0,444.1943359375,32,1511.0,34.375,2024.4677734375,24,3106.0,27.96875,1346.3115234375,39,2695.0,52.6875,3953.0,29,4500.0,33.6875,1838.5146484375,36,3633.0,17.390625,578.048583984375,34,1895.0,10.484375,200.935302734375,33,1099.0,10.625,209.5380859375,30,990.0,3
131,13.015625,361.816162109375,36,1416.0,36.5625,2171.875,28,3327.0,27.78125,1341.9287109375,30,2496.0,58.46875,4820.4990234375,29,5213.0,26.828125,1287.456787109375,40,2973.0,14.03125,419.5537109375,41,1601.0,10.609375,182.866943359375,37,1138.0,9.5,179.84375,31,914.0,3
132,11.734375,266.392333984375,37,1288.0,36.390625,2138.849365234375,33,3578.0,32.125,1565.43359375,30,3054.0,63.265625,5338.398193359375,32,5533.0,23.0625,821.4052734375,36,2174.0,10.25,181.30859375,35,1025.0,9.0,113.49609375,46,1009.0,7.359375,93.550537109375,33,736.0,3
133,12.296875,303.667724609375,32,1228.0,34.15625,2074.28125,33,3490.0,35.90625,2010.9443359375,32,3458.0,59.03125,4642.4833984375,38,5171.0,30.90625,1370.671875,37,3038.0,11.859375,232.083740234375,34,1203.0,8.671875,111.452880859375,38,935.0,7.21875,91.9365234375,31,730.0,3
134,13.375,322.6875,37,1414.0,27.84375,1473.80859375,25,2649.0,33.015625,1772.925537109375,28,2879.0,57.046875,4458.769287109375,35,5141.0,32.515625,1599.183349609375,40,3641.0,13.890625,289.964599609375,39,1500.0,8.796875,115.437255859375,35,899.0,7.46875,87.99609375,36,795.0,3
135,15.6875,407.7958984375,40,1764.0,35.546875,2233.087646484375,24,3265.0,32.71875,1467.3037109375,33,2770.0,58.015625,4434.191162109375,34,5372.0,38.484375,2355.259521484375,42,4108.0,19.34375,568.96484375,46,2066.0,10.546875,210.163818359375,38,1125.0,10.71875,189.90234375,42,1174.0,3
136,15.65625,428.828125,35,1614.0,44.40625,2961.828125,37,4533.0,32.578125,1692.907958984375,40,3244.0,60.015625,4777.931396484375,37,5869.0,36.0625,2194.43359375,36,3609.0,17.609375,510.868896484375,40,1786.0,10.5,221.7880859375,36,1112.0,11.3125,202.74609375,37,1186.0,3
137,14.390625,374.611083984375,31,1428.0,42.359375,2530.150146484375,40,4398.0,31.234375,1712.847412109375,34,3127.0,61.046875,5200.146240234375,35,5907.0,28.84375,1365.3115234375,26,2735.0,13.0625,278.1474609375,32,1242.0,10.625,195.0625,38,1159.0,9.34375,122.8427734375,31,916.0,3
138,13.03125,311.49609375,32,1264.0,39.296875,2172.583740234375,33,3713.0,31.453125,1579.232177734375,26,2652.0,55.078125,4454.394287109375,29,4821.0,31.25,1624.8193359375,29,3094.0,15.09375,459.37109375,36,1558.0,10.859375,220.818115234375,32,1086.0,9.296875,152.406005859375,28,875.0,3
139,13.796875,352.529052734375,39,1459.0,32.515625,1727.972412109375,29,2862.0,30.34375,1481.6875,27,2766.0,51.140625,3870.827880859375,26,3902.0,27.40625,1292.609375,34,2775.0,13.359375,378.693115234375,38,1404.0,9.25,157.37109375,34,935.0,8.421875,147.829833984375,31,853.0,3
140,14.5,353.3115234375,38,1452.0,27.078125,1321.495849609375,28,2381.0,25.0,1040.546875,31,2355.0,47.84375,3363.37109375,27,3541.0,21.5625,855.3125,35,2199.0,11.03125,219.1396484375,39,1163.0,8.609375,107.810302734375,38,860.0,7.453125,95.587646484375,33,718.0,3
141,11.953125,244.800537109375,32,1154.0,31.609375,1607.738037109375,31,2718.0,27.046875,1126.812255859375,34,2599.0,47.859375,3352.624755859375,30,3817.0,24.015625,1098.406005859375,31,2413.0,13.0625,314.8505859375,37,1360.0,8.21875,112.55859375,32,811.0,7.328125,83.419677734375,33,707.0,3
142,13.921875,387.806396484375,32,1450.0,35.703125,2106.601318359375,35,3442.0,32.75,1789.1630859375,36,3314.0,54.578125,4196.501708984375,36,4856.0,28.578125,1312.538818359375,35,2902.0,13.640625,314.378662109375,35,1423.0,8.0,109.0068359375,35,847.0,8.25,104.74609375,36,833.0,3
143,16.828125,539.384521484375,31,1775.0,32.328125,1848.808349609375,39,3503.0,32.640625,1962.833740234375,35,3294.0,48.25,3314.55859375,35,4434.0,23.125,905.96484375,47,2579.0,9.46875,172.7255859375,39,1057.0,7.265625,86.460693359375,33,742.0,7.53125,90.83984375,38,774.0,3
144,15.109375,422.511474609375,28,1500.0,32.6875,1715.9130859375,39,3326.0,30.34375,1638.3662109375,31,2878.0,50.21875,3612.3974609375,36,4751.0,22.5625,868.796875,46,2513.0,9.828125,183.902099609375,42,1089.0,6.578125,71.622802734375,29,653.0,8.484375,134.390380859375,32,840.0,3
145,14.65625,415.0693359375,34,1498.0,33.671875,1734.835693359375,39,3288.0,28.65625,1394.3349609375,32,2680.0,52.890625,4040.693115234375,35,5038.0,27.15625,1305.71484375,42,2896.0,13.71875,396.1865234375,37,1434.0,8.859375,145.271240234375,39,947.0,9.796875,169.767333984375,31,958.0,3
146,17.0,576.3583984375,35,1821.0,35.484375,1982.021240234375,34,3403.0,26.515625,1136.261474609375,30,2450.0,50.875,3788.1787109375,29,4364.0,32.96875,1904.9677734375,42,3489.0,17.609375,629.323974609375,37,1917.0,10.390625,190.691162109375,44,1141.0,9.984375,161.413818359375,33,928.0,3
147,16.859375,543.823974609375,30,1750.0,41.578125,2496.070068359375,33,4006.0,28.546875,1385.404052734375,26,2446.0,55.140625,4259.753662109375,28,4610.0,34.03125,1909.5302734375,38,3525.0,16.59375,523.74609375,39,1784.0,9.109375,133.484130859375,38,941.0,9.890625,157.130615234375,36,937.0,3
148,15.421875,489.648193359375,32,1702.0,39.3125,2324.9130859375,39,4003.0,30.0,1513.9521484375,31,2875.0,50.265625,3791.185302734375,33,4787.0,22.453125,957.667724609375,33,2241.0,10.546875,227.851318359375,33,1102.0,7.90625,102.578125,33,762.0,7.125,84.9208984375,37,715.0,3
149,13.890625,375.404052734375,37,1489.0,34.921875,1994.236083984375,40,3644.0,27.515625,1369.757568359375,32,2642.0,48.21875,3475.37109375,30,4235.0,18.265625,583.863037109375,34,1662.0,8.21875,123.8037109375,34,785.0,6.71875,81.87109375,38,685.0,5.75,48.0927734375,32,490.0,3
150,12.875,235.9599609375,40,1283.0,31.734375,1690.079833984375,34,2980.0,28.359375,1484.814208984375,28,2540.0,54.6875,4298.24609375,28,4403.0,24.375,1026.8818359375,38,2474.0,10.390625,222.837646484375,36,1096.0,6.625,73.12109375,36,683.0,5.6875,52.4130859375,35,580.0,3
151,14.859375,356.443115234375,40,1574.0,31.359375,1735.441162109375,33,3159.0,29.953125,1426.474365234375,27,2598.0,65.15625,5623.2021484375,36,5912.0,31.875,1607.8193359375,40,3516.0,14.84375,380.43359375,35,1606.0,7.921875,109.458740234375,30,775.0,7.9375,112.4599609375,40,871.0,3
152,15.140625,425.622802734375,38,1635.0,29.9375,1597.1787109375,34,3197.0,28.5625,1249.4052734375,29,2465.0,59.078125,4959.284912109375,32,5084.0,30.625,1407.09375,42,3273.0,14.4375,327.921875,40,1543.0,7.21875,93.24609375,33,702.0,8.75,136.68359375,36,912.0,3
153,13.390625,327.536865234375,36,1403.0,25.890625,1178.939208984375,29,2613.0,26.796875,1113.958740234375,31,2472.0,51.703125,3720.501708984375,26,4030.0,19.90625,678.421875,35,1951.0,9.40625,156.515625,36,970.0,6.609375,69.857177734375,32,601.0,5.8125,72.2412109375,26,557.0,3
154,12.8125,278.2099609375,40,1390.0,31.921875,1745.997802734375,33,3017.0,25.890625,1040.154052734375,35,2605.0,59.0,4469.5,28,4806.0,18.8125,683.33984375,29,1638.0,7.75,125.734375,29,728.0,7.46875,100.99609375,31,691.0,5.546875,62.433349609375,21,511.0,3
155,14.75,393.4990234375,46,1580.0,35.0,1980.140625,36,3242.0,25.078125,1206.581787109375,30,2397.0,59.6875,4698.8115234375,33,5515.0,24.171875,1029.884521484375,28,2208.0,9.921875,197.728271484375,28,981.0,8.53125,135.18359375,34,838.0,7.640625,97.482177734375,38,826.0,3
156,15.296875,405.163818359375,42,1550.0,34.03125,1965.0693359375,37,3261.0,29.90625,1842.0537109375,30,2942.0,60.265625,4760.095458984375,32,5543.0,23.609375,850.132568359375,33,2278.0,9.484375,151.531005859375,34,955.0,8.375,132.9521484375,38,862.0,6.78125,70.734375,45,763.0,3
157,14.578125,359.753662109375,34,1428.0,34.5,1892.62109375,39,3166.0,32.765625,1940.562255859375,39,3475.0,59.203125,4626.208740234375,30,5217.0,20.96875,637.09375,37,2073.0,7.953125,96.136474609375,36,806.0,6.28125,79.546875,30,637.0,4.921875,36.005615234375,33,470.0,3
158,16.90625,473.5537109375,38,1747.0,34.28125,1751.296875,37,3173.0,26.875,1253.796875,34,2789.0,52.40625,4129.265625,29,4630.0,18.109375,621.054443359375,33,1894.0,7.484375,88.288818359375,38,735.0,5.4375,49.671875,28,508.0,4.984375,40.005615234375,32,509.0,3
159,16.21875,442.6865234375,38,1656.0,31.453125,1566.320068359375,36,2861.0,32.96875,1891.1240234375,32,3394.0,50.859375,4151.134521484375,32,5020.0,20.125,847.24609375,31,2121.0,8.984375,141.837646484375,42,967.0,6.890625,76.241943359375,35,692.0,5.96875,67.0,33,640.0,3
160,15.984375,431.380615234375,42,1772.0,28.859375,1384.767333984375,34,2381.0,35.640625,2100.550537109375,34,3634.0,52.40625,4145.5,38,5371.0,20.125,769.828125,33,2032.0,9.1875,154.453125,37,981.0,7.546875,87.489990234375,35,752.0,6.65625,72.1865234375,36,689.0,3
161,16.3125,417.99609375,45,1762.0,27.875,1283.25,33,2517.0,27.71875,1318.0693359375,36,2825.0,58.34375,4823.15234375,32,5129.0,16.171875,441.999755859375,36,1680.0,6.984375,87.507568359375,37,769.0,7.640625,90.323974609375,36,765.0,6.265625,55.855224609375,40,635.0,3
162,14.1875,368.87109375,38,1510.0,27.171875,1385.919677734375,29,2544.0,30.34375,1536.68359375,34,2913.0,58.21875,4807.5927734375,29,5408.0,17.453125,535.335693359375,39,1891.0,7.859375,118.568115234375,41,884.0,7.671875,92.249755859375,35,753.0,6.109375,61.876708984375,34,589.0,3
163,13.421875,392.695068359375,33,1378.0,28.953125,1559.882568359375,26,2675.0,31.609375,1690.675537109375,32,3192.0,51.125,3770.1552734375,33,5274.0,19.8125,782.46484375,37,2203.0,9.21875,151.77734375,40,1004.0,7.265625,77.191162109375,37,716.0,6.265625,65.089599609375,31,587.0,3
164,13.625,349.93359375,29,1315.0,23.421875,1049.464599609375,28,2090.0,22.125,927.52734375,25,2160.0,43.8125,2907.24609375,35,4430.0,15.96875,563.15234375,32,1590.0,7.1875,91.953125,33,696.0,5.609375,46.304443359375,39,573.0,6.28125,63.5146484375,34,619.0,3
165,18.875,768.4833984375,31,1965.0,17.515625,676.620849609375,27,1651.0,25.171875,1212.218505859375,22,2272.0,47.515625,3593.011474609375,38,4890.0,15.671875,420.077880859375,32,1577.0,7.765625,109.138427734375,31,772.0,12.765625,551.900146484375,35,1359.0,12.28125,398.65625,34,1312.0,3
166,23.015625,1043.564208984375,32,2374.0,16.78125,540.3974609375,28,1616.0,32.25,1762.87109375,27,2864.0,48.859375,3732.464599609375,39,4830.0,15.96875,421.0849609375,34,1543.0,8.125,121.359375,34,835.0,19.34375,805.5625,40,2038.0,13.328125,442.128662109375,39,1459.0,4
167,22.265625,859.031005859375,30,2257.0,17.75,598.37109375,32,1798.0,24.96875,1125.4599609375,34,2384.0,41.796875,2555.890380859375,38,4183.0,12.796875,291.419677734375,37,1287.0,6.484375,79.025146484375,38,694.0,13.6875,354.77734375,41,1382.0,8.96875,155.109375,39,942.0,4
168,21.25,732.6943359375,34,2051.0,15.953125,494.005615234375,34,1698.0,20.078125,660.685302734375,34,1809.0,44.046875,2773.531005859375,37,4499.0,11.59375,230.5537109375,37,1218.0,5.765625,58.361083984375,34,608.0,9.359375,150.316162109375,40,952.0,8.015625,114.157958984375,38,855.0,4
169,21.078125,859.712646484375,41,2180.0,15.921875,428.683349609375,31,1422.0,19.109375,535.808349609375,28,1622.0,45.734375,3120.472412109375,37,4716.0,11.125,219.8896484375,33,1141.0,5.28125,56.33984375,28,559.0,9.4375,230.203125,40,1044.0,7.171875,84.286865234375,38,716.0,4
170,22.5625,991.015625,39,2340.0,17.875,517.1005859375,33,1639.0,22.21875,810.140625,30,2110.0,39.046875,2283.829833984375,38,3935.0,13.703125,330.474365234375,30,1394.0,7.109375,92.220458984375,32,728.0,11.671875,296.288818359375,33,1146.0,8.046875,111.661865234375,35,783.0,4
171,24.953125,1074.378662109375,35,2684.0,20.53125,690.890625,39,2033.0,26.625,1195.37109375,33,2697.0,41.3125,2668.6162109375,39,4176.0,16.59375,540.43359375,34,1730.0,9.984375,165.665771484375,29,961.0,16.96875,588.6005859375,35,1661.0,8.78125,133.03125,35,923.0,4
172,24.640625,969.677490234375,32,2500.0,22.296875,755.087646484375,35,2094.0,26.421875,1343.394287109375,33,2855.0,45.65625,3384.33984375,37,4379.0,17.96875,616.40234375,34,1838.0,11.0,205.15234375,29,1076.0,20.90625,925.37109375,33,2111.0,9.71875,198.65625,34,1022.0,4
173,21.109375,682.609130859375,32,2096.0,21.03125,646.6474609375,34,2077.0,25.078125,1082.374755859375,32,2346.0,43.609375,2953.771240234375,35,4045.0,19.578125,649.419677734375,34,1946.0,10.921875,198.630615234375,30,1056.0,24.6875,1191.671875,30,2466.0,10.1875,208.0380859375,33,1042.0,4
174,20.640625,696.364990234375,38,2191.0,18.984375,530.107177734375,38,1907.0,22.703125,760.007568359375,30,1941.0,44.296875,3058.773193359375,35,4328.0,17.9375,608.1005859375,35,1746.0,10.078125,187.003662109375,31,967.0,27.515625,1405.945068359375,35,2803.0,8.859375,122.113037109375,34,856.0,4
175,22.25,796.1162109375,39,2263.0,17.59375,501.21875,37,1835.0,21.84375,727.4130859375,30,1962.0,49.203125,3639.189208984375,35,4709.0,15.71875,475.7490234375,33,1574.0,9.390625,167.847412109375,30,969.0,23.625,1086.8037109375,38,2498.0,7.65625,93.2958984375,31,733.0,4
176,18.9375,590.3662109375,40,1877.0,16.90625,506.3974609375,36,1803.0,23.796875,970.632568359375,28,2246.0,48.375,3365.7255859375,35,4795.0,13.1875,316.83984375,30,1313.0,8.15625,112.93359375,34,841.0,23.234375,970.898193359375,36,2430.0,7.15625,80.80859375,37,750.0,4
177,17.640625,578.284912109375,45,1999.0,14.515625,358.003662109375,38,1574.0,23.84375,964.3974609375,28,2298.0,39.84375,2537.515625,32,3800.0,10.0625,179.2255859375,33,1059.0,7.609375,82.579833984375,41,815.0,25.1875,1077.27734375,38,2695.0,7.171875,79.611083984375,42,787.0,4
178,18.46875,586.0,47,2109.0,14.953125,377.769287109375,35,1416.0,21.515625,635.736083984375,26,1778.0,41.03125,2721.7958984375,32,3558.0,11.390625,264.726318359375,47,1350.0,8.1875,124.8125,40,924.0,20.5,771.65234375,39,2266.0,8.125,104.2568359375,38,867.0,4
179,15.203125,341.747802734375,40,1604.0,16.1875,431.1474609375,27,1359.0,18.875,492.0224609375,30,1612.0,42.84375,2710.9208984375,37,4077.0,11.234375,232.554443359375,40,1180.0,7.609375,116.093505859375,34,824.0,16.375,499.9375,40,1757.0,7.390625,86.917724609375,33,749.0,4
180,12.671875,259.214599609375,36,1238.0,18.3125,513.8037109375,27,1750.0,22.203125,863.470458984375,33,2199.0,45.078125,2900.493896484375,38,4503.0,10.71875,176.6875,32,1065.0,7.078125,73.489990234375,32,708.0,16.90625,558.8818359375,40,1749.0,6.3125,65.1630859375,34,658.0,4
181,11.375,217.68359375,39,1210.0,18.9375,554.65234375,28,1802.0,20.65625,814.9990234375,31,1899.0,42.265625,2608.007568359375,36,3932.0,9.234375,154.880615234375,33,962.0,7.1875,74.80859375,35,711.0,20.125,907.4677734375,37,2089.0,5.484375,52.070068359375,34,578.0,4
182,13.21875,296.4443359375,41,1449.0,15.578125,412.495849609375,30,1394.0,16.609375,484.583740234375,33,1423.0,36.453125,2021.939208984375,37,3402.0,7.765625,105.087646484375,34,825.0,7.0,80.83984375,34,750.0,18.5625,800.65234375,36,1877.0,5.15625,42.0458984375,31,509.0,4
183,18.65625,603.25,40,1999.0,12.640625,313.431396484375,35,1249.0,18.09375,683.0224609375,34,1767.0,41.484375,2611.808349609375,36,4203.0,8.9375,119.546875,34,887.0,5.859375,59.009521484375,33,663.0,13.5625,320.46484375,42,1422.0,6.578125,76.761474609375,38,729.0,4
184,15.546875,493.616943359375,36,1594.0,12.125,284.8896484375,37,1304.0,18.40625,730.140625,29,2003.0,39.71875,2420.1162109375,36,3949.0,9.671875,154.947021484375,31,962.0,6.15625,64.3740234375,35,636.0,11.09375,178.8271484375,41,1120.0,6.546875,81.290771484375,40,737.0,4
185,14.484375,495.277099609375,38,1545.0,15.6875,475.6083984375,37,1623.0,20.15625,836.765625,29,2152.0,28.078125,1366.503662109375,37,2881.0,14.015625,419.230224609375,33,1456.0,8.640625,148.597412109375,36,883.0,9.8125,178.90234375,36,977.0,9.21875,259.99609375,38,1012.0,4
186,20.375,750.75,37,2164.0,16.71875,497.4130859375,31,1547.0,18.84375,823.8115234375,31,1879.0,28.859375,1721.562255859375,33,3207.0,13.84375,423.4990234375,38,1488.0,7.8125,127.80859375,34,822.0,8.625,150.9599609375,33,824.0,9.328125,261.120849609375,32,977.0,4
187,19.578125,654.402099609375,31,2018.0,12.515625,252.165771484375,27,1057.0,18.03125,629.546875,26,1561.0,39.53125,2806.671875,30,4143.0,10.3125,181.796875,32,1007.0,5.59375,45.2880859375,31,558.0,7.71875,92.6630859375,32,727.0,6.5,74.3818359375,30,632.0,4
188,18.765625,654.564208984375,28,1758.0,9.9375,165.21875,32,944.0,19.640625,678.388427734375,22,1686.0,43.484375,3168.599365234375,29,4038.0,11.109375,203.859130859375,32,1061.0,6.328125,57.126708984375,36,626.0,7.484375,93.150146484375,39,760.0,7.3125,85.8974609375,39,773.0,4
189,15.53125,451.1005859375,38,1529.0,8.578125,120.183349609375,35,825.0,17.640625,652.181396484375,29,1666.0,42.453125,2764.200927734375,39,4233.0,9.8125,181.9521484375,31,1043.0,5.609375,49.398193359375,30,576.0,6.53125,75.15625,40,691.0,7.890625,132.591552734375,38,863.0,4
190,17.328125,546.210693359375,40,1669.0,9.25,182.7255859375,27,874.0,21.921875,881.993896484375,35,2250.0,40.734375,2324.614990234375,42,4273.0,10.546875,241.876708984375,30,1142.0,5.78125,50.7490234375,27,548.0,6.03125,62.62109375,30,575.0,7.75,131.46484375,31,819.0,4
191,20.03125,770.3115234375,39,1987.0,9.25,185.4833984375,28,920.0,22.15625,803.02734375,34,2247.0,33.59375,1709.3349609375,36,3482.0,10.8125,261.7021484375,37,1179.0,5.765625,56.224365234375,30,574.0,6.453125,74.224365234375,30,646.0,6.84375,81.3896484375,35,726.0,4
192,20.96875,897.1630859375,43,2273.0,9.375,147.8193359375,32,962.0,19.625,491.4990234375,31,1771.0,28.3125,1227.96484375,39,2955.0,8.921875,153.720458984375,38,919.0,4.765625,42.130615234375,28,483.0,7.125,90.8740234375,37,743.0,6.8125,88.8349609375,38,741.0,4
193,22.640625,965.939208984375,39,2404.0,11.328125,202.579833984375,32,1065.0,19.796875,514.529052734375,29,1715.0,27.15625,1208.43359375,40,2696.0,7.5,103.2802734375,26,677.0,4.78125,34.74609375,25,384.0,6.796875,81.075927734375,32,666.0,6.671875,78.656005859375,33,705.0,4
194,20.40625,826.890625,35,2149.0,11.125,189.4443359375,34,1022.0,17.875,551.21484375,27,1730.0,32.203125,1655.177490234375,39,3231.0,6.765625,80.064208984375,23,589.0,4.4375,32.4990234375,21,374.0,6.34375,65.1240234375,26,568.0,6.203125,60.544677734375,26,611.0,4
195,17.65625,609.2802734375,38,1858.0,9.46875,138.734375,36,901.0,19.703125,715.482177734375,23,1780.0,37.96875,2258.12109375,36,3806.0,8.6875,126.421875,29,816.0,4.546875,36.204833984375,27,446.0,7.40625,107.2646484375,33,739.0,6.65625,86.1708984375,31,669.0,4
196,17.453125,566.814208984375,42,1875.0,9.34375,151.8037109375,31,902.0,20.125,681.84375,24,1819.0,38.53125,2452.52734375,34,3840.0,10.234375,172.804443359375,34,1010.0,5.1875,45.46484375,28,506.0,9.53125,182.28125,36,976.0,9.984375,202.249755859375,38,1057.0,4
197,17.625,554.2724609375,36,1881.0,8.703125,131.433349609375,26,792.0,19.625,653.93359375,29,1855.0,35.859375,2137.388427734375,35,3562.0,9.796875,156.808349609375,33,931.0,4.84375,40.0849609375,25,465.0,7.828125,134.322021484375,32,784.0,10.21875,199.65234375,34,1084.0,4
198,15.09375,355.7880859375,33,1504.0,8.71875,117.12109375,32,851.0,18.359375,570.964599609375,29,1783.0,34.3125,1997.7412109375,31,3277.0,7.5,91.5625,29,666.0,4.4375,27.484375,24,353.0,9.375,180.9833984375,33,931.0,6.78125,83.5224609375,29,617.0,4
199,14.296875,329.982177734375,33,1394.0,10.6875,180.68359375,38,1075.0,17.546875,450.443115234375,31,1660.0,37.578125,2536.404052734375,34,3860.0,10.578125,251.066162109375,33,1078.0,6.578125,84.577880859375,31,615.0,16.140625,464.697021484375,38,1663.0,6.59375,78.9287109375,28,647.0,4
200,9.34375,218.234375,21,958.0,7.6875,128.77734375,34,760.0,13.28125,252.140625,29,1094.0,29.828125,1759.163818359375,43,3273.0,10.625,277.515625,30,1096.0,5.875,82.02734375,30,583.0,11.484375,346.290771484375,29,1190.0,4.890625,58.224365234375,20,492.0,4
201,3.125,78.28125,13,292.0,2.859375,17.632568359375,25,242.0,8.625,100.3896484375,28,654.0,16.625,518.1396484375,41,1701.0,4.6875,65.0849609375,23,435.0,2.640625,15.786865234375,23,231.0,2.9375,37.7568359375,16,247.0,1.796875,12.034912109375,10,168.0,4
202,1.21875,1.6162109375,11,88.0,1.828125,4.527099609375,20,147.0,8.15625,84.8505859375,29,696.0,11.484375,266.025146484375,37,1211.0,2.90625,13.27734375,27,269.0,1.9375,6.05859375,19,158.0,1.515625,2.825927734375,14,110.0,1.015625,0.964599609375,8,74.0,5
203,1.265625,1.853271484375,13,96.0,1.890625,4.568115234375,20,141.0,8.96875,91.2802734375,27,693.0,12.734375,397.693115234375,38,1356.0,2.84375,14.71484375,26,259.0,1.859375,5.376708984375,21,160.0,1.734375,3.265380859375,16,120.0,0.984375,0.954833984375,8,78.0,5
204,1.3125,1.9287109375,15,100.0,2.1875,6.7724609375,23,182.0,9.09375,88.93359375,30,712.0,14.96875,559.9443359375,35,1530.0,3.59375,22.7099609375,30,340.0,1.875,4.8505859375,26,165.0,1.65625,3.0625,13,124.0,1.109375,1.478271484375,9,98.0,5
205,1.328125,1.794677734375,13,103.0,2.09375,6.25,24,174.0,9.078125,96.134521484375,27,720.0,15.578125,466.466552734375,36,1483.0,3.90625,22.46875,31,319.0,2.078125,6.191162109375,19,167.0,1.625,2.921875,14,133.0,1.28125,1.8125,12,99.0,5
206,1.46875,2.6552734375,12,106.0,2.03125,5.53125,26,190.0,8.03125,81.1083984375,27,700.0,14.859375,375.132568359375,43,1645.0,3.734375,20.804443359375,26,302.0,2.421875,9.048583984375,19,209.0,1.703125,2.835693359375,13,121.0,1.234375,1.794677734375,8,90.0,5
207,1.234375,2.333740234375,11,94.0,2.015625,5.628662109375,25,196.0,6.8125,58.1865234375,34,652.0,13.46875,303.3115234375,39,1483.0,3.671875,28.036865234375,24,369.0,2.265625,8.558349609375,20,188.0,1.59375,2.90625,12,114.0,1.09375,1.3974609375,6,77.0,5
208,1.0,1.1083984375,9,74.0,1.703125,4.169677734375,20,161.0,6.5625,56.55859375,34,623.0,11.609375,209.316162109375,33,1147.0,3.3125,24.1240234375,26,351.0,2.140625,6.659912109375,22,176.0,1.578125,2.857177734375,16,117.0,1.203125,1.390380859375,10,85.0,5
209,1.09375,1.08984375,12,73.0,1.5,3.58984375,19,142.0,6.28125,54.5458984375,31,602.0,11.328125,227.548583984375,33,1113.0,3.4375,18.49609375,28,329.0,2.265625,7.409912109375,25,198.0,1.46875,3.0,15,122.0,1.203125,1.515380859375,8,91.0,5
210,1.28125,1.6005859375,18,93.0,1.53125,4.34375,17,152.0,6.5625,63.7177734375,31,629.0,13.0,332.0302734375,35,1317.0,3.78125,21.6552734375,29,334.0,2.546875,10.917724609375,22,232.0,1.484375,2.991943359375,12,125.0,1.125,1.625,9,96.0,5
211,1.28125,2.2880859375,15,110.0,1.640625,4.169677734375,13,145.0,7.53125,78.05859375,32,705.0,11.328125,268.179443359375,36,1182.0,3.765625,26.191162109375,21,331.0,3.03125,14.9677734375,17,258.0,1.5,3.09375,18,136.0,1.140625,1.679443359375,9,92.0,5
212,1.203125,2.267333984375,12,114.0,1.765625,3.603271484375,15,138.0,7.6875,75.9755859375,33,695.0,11.4375,226.5771484375,40,1255.0,3.828125,26.995849609375,18,330.0,3.421875,15.890380859375,23,274.0,1.484375,3.212646484375,24,145.0,1.296875,1.884521484375,11,97.0,5
213,1.21875,2.2333984375,12,110.0,1.71875,3.7099609375,20,141.0,6.9375,62.18359375,29,579.0,13.125,309.671875,41,1438.0,3.671875,23.355224609375,21,316.0,3.484375,18.527099609375,22,305.0,1.578125,3.632568359375,19,124.0,1.328125,1.911865234375,17,101.0,5
214,1.234375,2.255615234375,8,100.0,1.625,3.453125,16,130.0,6.953125,59.113037109375,28,550.0,12.890625,370.265380859375,38,1413.0,3.359375,20.056396484375,24,303.0,2.984375,15.730224609375,23,272.0,1.71875,4.3896484375,12,124.0,1.15625,1.40234375,15,80.0,5
215,1.28125,1.953125,12,97.0,1.5625,3.7099609375,16,136.0,6.578125,61.099365234375,28,518.0,14.015625,490.556396484375,41,1628.0,3.34375,17.8740234375,25,287.0,2.640625,10.427490234375,28,232.0,1.359375,3.187255859375,12,106.0,1.09375,1.37109375,10,74.0,5
216,1.140625,1.646240234375,14,96.0,1.625,4.046875,17,148.0,5.5,47.87109375,24,474.0,17.296875,812.984130859375,42,1998.0,3.234375,16.415771484375,19,269.0,2.59375,10.3115234375,24,217.0,1.25,2.5615234375,16,109.0,1.03125,1.30859375,5,80.0,5
217,1.046875,1.396240234375,10,87.0,1.546875,3.046630859375,15,132.0,5.6875,51.08984375,26,548.0,19.671875,966.991943359375,45,2314.0,2.921875,15.253662109375,24,285.0,2.140625,8.415771484375,22,204.0,1.34375,2.5771484375,12,110.0,1.09375,1.3193359375,6,73.0,5
218,1.828125,10.923583984375,10,144.0,2.59375,22.7646484375,16,224.0,6.375,65.3193359375,24,598.0,14.75,534.90234375,43,1699.0,3.84375,33.8125,26,399.0,2.0,7.4599609375,16,198.0,1.3125,2.109375,14,102.0,1.3125,2.58984375,8,86.0,5
219,2.046875,11.665771484375,12,167.0,3.09375,25.890625,23,276.0,6.484375,63.200927734375,24,589.0,9.984375,183.294677734375,34,1041.0,3.8125,30.5625,22,354.0,2.171875,7.298583984375,20,198.0,1.46875,2.4208984375,21,115.0,1.171875,2.566162109375,9,100.0,5
220,1.375,1.9990234375,10,96.0,2.125,6.7177734375,24,197.0,6.9375,65.0146484375,31,669.0,12.609375,325.673583984375,35,1350.0,2.546875,9.710693359375,22,225.0,1.9375,5.765625,17,168.0,1.484375,2.599365234375,17,117.0,1.046875,1.245849609375,8,81.0,5
221,1.109375,1.423583984375,7,77.0,1.625,4.0693359375,17,148.0,6.84375,60.33984375,31,649.0,15.21875,451.4365234375,39,1699.0,2.796875,12.411865234375,28,268.0,1.96875,5.6875,19,166.0,1.578125,2.974365234375,20,128.0,1.125,1.296875,8,77.0,5
222,1.140625,1.804443359375,11,92.0,1.53125,3.3193359375,18,132.0,6.6875,56.578125,31,590.0,10.8125,261.96484375,33,1124.0,3.40625,18.2880859375,32,317.0,2.234375,6.759521484375,24,176.0,1.734375,3.382568359375,27,141.0,1.0,1.3583984375,6,81.0,5
223,1.265625,1.697021484375,13,91.0,1.59375,3.4208984375,18,124.0,6.46875,49.9755859375,31,541.0,9.203125,226.495849609375,28,979.0,3.234375,19.171630859375,30,327.0,2.046875,6.159912109375,21,169.0,1.65625,3.02734375,21,117.0,1.03125,1.18359375,7,82.0,5
224,1.140625,1.402099609375,12,88.0,1.515625,4.120849609375,15,132.0,6.03125,44.8662109375,29,512.0,12.359375,309.923583984375,35,1318.0,3.0625,21.3818359375,28,326.0,1.953125,6.239990234375,21,186.0,1.546875,3.021240234375,21,114.0,1.15625,1.390625,9,81.0,5
225,1.234375,1.960693359375,16,103.0,1.4375,3.7490234375,15,138.0,5.40625,42.3125,31,540.0,11.890625,280.958740234375,35,1179.0,3.390625,23.368896484375,25,324.0,2.28125,7.7255859375,16,194.0,1.390625,2.864990234375,18,113.0,1.140625,1.589599609375,8,95.0,5
226,1.28125,2.109375,14,107.0,1.5,3.3115234375,18,144.0,5.421875,40.781005859375,28,504.0,12.0,296.18359375,29,1178.0,3.84375,26.2568359375,25,382.0,2.890625,11.859130859375,23,253.0,1.46875,2.78125,16,116.0,1.015625,1.335693359375,5,88.0,5
227,1.109375,1.513427734375,6,99.0,1.640625,3.353271484375,23,153.0,6.109375,44.357177734375,22,513.0,11.21875,228.3271484375,34,1089.0,3.3125,21.05859375,24,357.0,2.8125,11.875,31,276.0,1.59375,2.6474609375,17,119.0,1.0625,1.3037109375,5,74.0,5
228,1.15625,1.5302734375,7,99.0,1.59375,2.9443359375,21,146.0,7.21875,62.5625,24,596.0,9.515625,149.902099609375,41,1007.0,2.5625,10.5302734375,24,258.0,2.046875,6.366943359375,23,177.0,1.453125,2.308349609375,14,104.0,1.125,1.125,7,66.0,5
229,1.125,1.4755859375,12,90.0,1.5625,3.25,16,134.0,7.359375,63.226318359375,24,584.0,10.15625,160.4208984375,37,973.0,2.8125,14.1552734375,28,266.0,1.90625,5.3583984375,22,156.0,1.59375,2.7490234375,12,98.0,1.15625,0.9365234375,7,67.0,5
230,1.09375,1.2958984375,15,80.0,1.515625,3.927490234375,17,137.0,6.484375,44.962646484375,19,444.0,12.765625,266.128662109375,38,1269.0,3.625,22.859375,31,363.0,2.109375,6.948974609375,23,195.0,1.578125,2.304443359375,7,99.0,1.15625,1.1875,6,75.0,5
231,1.21875,1.2490234375,11,82.0,1.5625,3.421875,16,127.0,6.09375,45.1162109375,23,445.0,14.703125,403.267333984375,40,1577.0,3.4375,19.2255859375,30,333.0,2.015625,6.216552734375,22,180.0,1.546875,2.628662109375,12,109.0,1.046875,1.134521484375,2,70.0,5
232,1.234375,1.540771484375,8,89.0,1.515625,2.839599609375,12,120.0,5.453125,39.406005859375,28,442.0,13.796875,348.382568359375,45,1531.0,2.875,11.9287109375,30,273.0,2.015625,6.411865234375,18,188.0,1.609375,2.984130859375,18,115.0,1.078125,0.982177734375,5,77.0,5
233,1.25,1.96484375,9,106.0,1.53125,3.8037109375,20,155.0,6.234375,50.542724609375,29,537.0,12.546875,277.497802734375,46,1399.0,3.15625,13.80859375,26,298.0,2.34375,8.34375,17,223.0,1.59375,2.55859375,18,120.0,1.15625,1.203125,10,75.0,5
234,1.234375,1.870849609375,17,109.0,1.59375,3.9833984375,24,164.0,6.640625,57.693115234375,29,605.0,13.96875,394.203125,39,1471.0,3.25,16.05859375,22,285.0,2.328125,8.241943359375,23,205.0,1.53125,2.4990234375,16,119.0,1.15625,1.359375,7,72.0,5
235,1.1875,1.5458984375,17,92.0,1.390625,3.241943359375,15,132.0,6.296875,59.431396484375,26,624.0,12.390625,320.222412109375,34,1227.0,3.3125,16.77734375,27,302.0,2.171875,7.634521484375,20,172.0,1.5625,2.6240234375,15,120.0,1.15625,1.484375,9,95.0,5
236,1.125,1.4287109375,9,91.0,1.34375,2.390625,13,111.0,6.15625,56.0068359375,30,622.0,10.6875,210.125,27,1057.0,3.375,15.9443359375,29,319.0,2.328125,8.103271484375,21,216.0,1.53125,2.3349609375,14,116.0,1.09375,1.5146484375,12,93.0,5
237,1.015625,1.267333984375,7,82.0,1.5,3.3505859375,19,129.0,6.09375,47.7177734375,36,572.0,15.734375,490.372802734375,31,1640.0,3.40625,16.4912109375,26,317.0,2.375,8.15625,22,223.0,1.390625,1.972412109375,17,111.0,1.078125,1.224365234375,10,82.0,5
238,1.09375,1.2412109375,8,76.0,1.59375,4.15234375,22,146.0,5.953125,51.325927734375,36,589.0,15.734375,517.031005859375,37,1654.0,3.328125,15.544677734375,30,305.0,2.25,8.09375,20,205.0,1.296875,2.333740234375,18,120.0,1.0625,1.265625,8,85.0,5
239,1.15625,1.2099609375,13,83.0,1.53125,3.15234375,20,129.0,5.46875,47.4755859375,37,584.0,12.78125,328.74609375,38,1349.0,3.078125,14.183349609375,33,308.0,2.140625,7.548583984375,18,189.0,1.421875,3.220458984375,18,136.0,1.03125,1.5146484375,10,91.0,5
240,2.25,9.9130859375,20,191.0,5.109375,81.499755859375,21,457.0,14.703125,599.964599609375,35,1420.0,12.28125,274.8125,36,1280.0,4.140625,27.679443359375,30,408.0,3.5,24.0068359375,23,335.0,3.296875,21.964599609375,25,302.0,2.453125,13.663818359375,21,213.0,5
241,3.4375,20.1552734375,24,321.0,8.359375,146.818115234375,26,803.0,19.5625,747.515625,31,1869.0,14.03125,374.37109375,35,1367.0,4.484375,30.763427734375,30,441.0,4.078125,27.040771484375,30,371.0,4.125,28.02734375,28,386.0,3.6875,25.5625,28,339.0,5
242,4.453125,39.790771484375,28,443.0,10.609375,199.890380859375,35,1097.0,13.265625,263.675537109375,32,1236.0,15.0,393.359375,35,1510.0,3.5625,19.515625,30,360.0,3.078125,11.884521484375,32,265.0,4.921875,40.273193359375,34,495.0,6.3125,116.46484375,29,629.0,6
243,5.421875,52.282958984375,35,522.0,13.71875,393.9833984375,40,1514.0,12.890625,283.771240234375,38,1347.0,12.59375,227.921875,38,1281.0,4.09375,24.77734375,32,410.0,2.984375,11.755615234375,40,283.0,5.203125,42.503662109375,34,496.0,7.71875,143.58984375,27,733.0,6
244,5.1875,43.62109375,31,474.0,14.015625,430.116943359375,34,1409.0,12.546875,278.335693359375,34,1227.0,13.140625,273.585693359375,38,1232.0,4.265625,25.159912109375,27,391.0,2.765625,12.195068359375,35,266.0,3.921875,26.822021484375,27,383.0,5.828125,68.476318359375,28,548.0,6
245,4.578125,31.480224609375,33,427.0,14.71875,400.9912109375,33,1422.0,11.0625,184.0849609375,33,1015.0,12.8125,282.2412109375,42,1343.0,4.21875,23.0,29,395.0,3.203125,16.700927734375,29,299.0,4.65625,38.875,30,479.0,5.0,43.9443359375,32,458.0,6
246,4.171875,24.544677734375,37,404.0,16.78125,535.33984375,32,1764.0,11.71875,194.52734375,37,1123.0,12.015625,276.087646484375,45,1308.0,4.375,27.96875,32,423.0,4.234375,26.197021484375,28,361.0,5.8125,59.96484375,37,581.0,4.609375,31.572021484375,30,431.0,6
247,4.625,30.7802734375,36,437.0,18.140625,585.548583984375,27,1734.0,12.34375,217.1240234375,34,1209.0,10.625,219.09375,42,1122.0,4.71875,32.9833984375,27,388.0,6.46875,74.7412109375,23,475.0,6.28125,68.5302734375,35,617.0,4.765625,41.200927734375,37,490.0,6
248,4.484375,32.945068359375,30,433.0,16.203125,473.841552734375,26,1546.0,12.890625,239.423583984375,34,1243.0,8.890625,142.714599609375,34,854.0,4.6875,30.265625,29,402.0,5.96875,69.27734375,23,446.0,6.765625,72.937255859375,39,700.0,4.53125,37.87109375,36,455.0,6
249,3.703125,24.501708984375,27,380.0,14.625,376.90234375,28,1503.0,13.984375,279.443115234375,35,1250.0,7.8125,122.37109375,33,735.0,4.828125,35.169677734375,35,501.0,4.953125,36.820068359375,31,510.0,7.71875,93.71484375,39,829.0,3.6875,23.8662109375,27,373.0,6
250,3.734375,22.005615234375,30,375.0,16.4375,453.7724609375,33,1641.0,12.640625,217.802490234375,24,1053.0,6.609375,80.640380859375,32,673.0,5.15625,42.21484375,29,496.0,5.6875,46.83984375,30,562.0,6.203125,64.980224609375,34,665.0,3.1875,18.65234375,29,320.0,6
251,3.703125,22.044677734375,30,347.0,13.96875,349.08984375,37,1354.0,12.90625,267.62109375,22,1094.0,8.578125,135.308349609375,35,904.0,4.34375,32.43359375,23,413.0,5.203125,41.482177734375,32,522.0,4.875,39.9755859375,31,500.0,2.46875,10.1318359375,26,234.0,6
252,3.65625,23.0224609375,33,351.0,11.328125,217.972412109375,39,1119.0,12.34375,271.5625,36,1171.0,9.859375,162.382568359375,38,1003.0,3.84375,25.33984375,19,346.0,5.09375,38.43359375,32,504.0,5.28125,45.875,29,496.0,2.328125,8.349365234375,24,219.0,6
253,3.484375,22.019287109375,36,366.0,11.15625,245.890625,36,1127.0,9.21875,147.6875,29,875.0,9.203125,139.648193359375,39,947.0,3.984375,25.339599609375,20,332.0,4.875,35.4990234375,31,460.0,5.90625,63.5625,31,598.0,3.25,17.4990234375,31,337.0,6
254,3.296875,16.638427734375,31,326.0,11.609375,254.427490234375,37,1203.0,10.03125,170.9130859375,25,892.0,7.765625,105.224365234375,38,825.0,4.125,26.9443359375,25,368.0,4.703125,36.032958984375,34,466.0,6.296875,74.019287109375,31,675.0,2.859375,14.876708984375,26,294.0,6
255,3.4375,18.609375,23,306.0,13.625,338.8662109375,35,1414.0,10.421875,158.249755859375,35,980.0,7.0,81.453125,31,679.0,4.046875,25.769287109375,27,408.0,4.015625,27.722412109375,30,409.0,6.421875,83.116943359375,35,732.0,2.53125,10.8818359375,26,238.0,6
256,3.8125,24.53125,27,348.0,12.5625,283.4208984375,25,1152.0,9.484375,144.476318359375,37,975.0,7.640625,99.548583984375,34,776.0,3.734375,21.419677734375,24,370.0,3.421875,17.284912109375,28,322.0,5.9375,74.546875,36,674.0,2.6875,11.8427734375,29,258.0,6
257,4.609375,36.695068359375,35,470.0,12.953125,334.581787109375,30,1238.0,10.078125,156.148193359375,36,974.0,8.421875,129.234130859375,38,900.0,4.1875,29.2880859375,24,397.0,3.453125,17.441162109375,27,307.0,5.40625,49.4755859375,31,531.0,2.578125,12.538818359375,24,253.0,6
258,4.109375,31.210693359375,34,433.0,12.453125,328.679443359375,35,1306.0,11.328125,197.431396484375,42,1147.0,7.234375,99.474365234375,35,762.0,4.75,35.1474609375,29,430.0,4.0,24.27734375,25,384.0,5.6875,54.49609375,25,505.0,2.625,13.7646484375,30,263.0,6
259,3.90625,25.1083984375,33,402.0,11.859375,259.767333984375,29,1111.0,12.28125,302.62109375,39,1290.0,6.84375,82.3037109375,31,687.0,4.703125,35.031005859375,30,444.0,4.375,31.46875,25,418.0,5.21875,46.2568359375,29,496.0,2.375,10.953125,22,240.0,6
260,3.609375,23.062255859375,27,357.0,13.390625,305.040771484375,33,1309.0,12.03125,286.4443359375,28,1172.0,7.640625,96.704833984375,35,745.0,4.390625,31.218505859375,26,405.0,3.765625,25.239990234375,24,343.0,5.0,38.953125,40,535.0,2.4375,14.7099609375,17,252.0,6
261,2.953125,14.804443359375,25,276.0,11.734375,247.974365234375,31,1136.0,8.890625,127.339599609375,19,760.0,6.390625,71.448974609375,34,632.0,3.46875,21.3818359375,29,359.0,3.046875,15.378662109375,28,282.0,5.03125,44.3271484375,41,567.0,2.125,11.1943359375,22,229.0,6
262,3.75,24.8271484375,29,368.0,11.84375,325.046875,26,1086.0,7.359375,83.165771484375,24,652.0,6.375,68.1005859375,29,570.0,3.078125,18.111083984375,25,320.0,3.6875,19.80859375,33,341.0,5.453125,54.085693359375,37,589.0,2.765625,17.585693359375,22,263.0,6
263,4.09375,29.40234375,31,418.0,13.25,362.3125,34,1318.0,8.875,141.078125,30,920.0,6.28125,65.171875,30,601.0,3.71875,20.9052734375,25,342.0,3.65625,19.65234375,32,348.0,4.765625,37.931396484375,35,497.0,3.71875,24.703125,34,368.0,6
264,3.71875,22.390625,34,369.0,11.4375,228.75,30,1056.0,9.21875,154.4599609375,34,989.0,5.5,52.140625,33,568.0,3.640625,19.005615234375,36,344.0,3.03125,15.921875,29,306.0,4.765625,35.876708984375,37,477.0,2.984375,13.941162109375,33,311.0,6
265,3.546875,20.888427734375,32,354.0,13.59375,361.9208984375,30,1350.0,10.234375,204.173583984375,33,961.0,6.59375,72.5068359375,33,653.0,3.65625,20.02734375,32,340.0,3.375,18.18359375,26,333.0,5.703125,50.907958984375,36,583.0,2.59375,11.1318359375,24,274.0,6
266,3.609375,21.575927734375,29,363.0,14.421875,382.661865234375,36,1432.0,9.765625,203.308349609375,28,881.0,6.71875,69.2490234375,35,679.0,4.296875,28.366943359375,27,420.0,3.5,18.6865234375,23,328.0,5.734375,53.146240234375,34,622.0,3.328125,16.564208984375,29,337.0,6
267,3.65625,21.671875,27,343.0,10.9375,203.27734375,34,1008.0,10.578125,221.751708984375,36,1141.0,6.6875,68.1787109375,39,701.0,4.015625,23.958740234375,27,408.0,3.15625,15.1396484375,22,282.0,5.3125,46.8193359375,28,586.0,3.59375,21.24609375,34,383.0,6
268,3.546875,19.784912109375,29,335.0,10.65625,195.77734375,27,932.0,12.453125,263.183349609375,45,1457.0,7.59375,93.390625,29,751.0,4.125,26.8349609375,29,422.0,3.71875,22.96484375,30,370.0,4.953125,38.552490234375,28,468.0,3.984375,31.859130859375,35,450.0,6
269,4.078125,26.114990234375,32,384.0,12.40625,313.52734375,25,1155.0,10.765625,181.503662109375,41,1137.0,7.328125,87.693115234375,32,775.0,5.046875,42.327880859375,32,548.0,4.609375,31.851318359375,35,476.0,5.96875,63.4287109375,34,567.0,4.0,29.0146484375,37,429.0,6
270,5.0,40.109375,32,460.0,14.875,466.77734375,26,1401.0,10.28125,138.77734375,29,902.0,7.390625,95.118896484375,40,813.0,5.203125,43.902099609375,35,580.0,4.015625,24.015380859375,31,385.0,6.390625,80.968505859375,28,627.0,3.8125,21.58984375,37,374.0,6
271,4.421875,34.898193359375,23,390.0,14.421875,390.421630859375,23,1168.0,11.671875,189.831787109375,24,896.0,8.421875,113.907958984375,41,946.0,5.453125,46.837646484375,32,558.0,5.015625,46.070068359375,27,468.0,6.15625,68.46484375,28,616.0,4.40625,33.2880859375,29,402.0,6
272,4.171875,33.056396484375,25,419.0,12.5,292.0537109375,22,1052.0,12.265625,234.441162109375,27,1026.0,9.40625,128.3125,39,924.0,6.546875,66.197021484375,25,618.0,7.609375,96.788818359375,29,730.0,5.78125,53.421875,32,593.0,4.109375,33.708740234375,29,377.0,6
273,4.46875,35.1630859375,30,457.0,16.171875,533.181396484375,27,1534.0,13.296875,307.103271484375,29,1271.0,9.609375,145.222412109375,33,931.0,5.828125,53.132568359375,25,519.0,8.234375,112.796630859375,34,866.0,6.28125,70.6474609375,32,589.0,3.734375,25.216552734375,34,367.0,6
274,4.203125,27.568115234375,24,378.0,16.03125,478.71875,37,1550.0,13.71875,296.28125,25,1124.0,9.203125,141.986083984375,32,952.0,4.625,32.28125,27,419.0,6.5,74.3193359375,31,662.0,6.921875,78.238037109375,32,659.0,3.203125,17.036865234375,30,324.0,6
275,4.6875,37.828125,26,444.0,11.078125,212.273193359375,37,1128.0,11.671875,180.800537109375,20,868.0,9.28125,135.27734375,37,937.0,4.734375,34.495849609375,24,414.0,5.71875,53.53125,26,534.0,6.890625,78.572021484375,34,701.0,3.9375,32.87109375,32,390.0,6
276,4.609375,37.378662109375,31,455.0,11.109375,266.777099609375,28,1099.0,12.15625,212.65234375,25,1065.0,8.109375,109.318115234375,36,802.0,4.734375,33.331787109375,22,418.0,5.71875,52.6630859375,32,586.0,7.34375,95.0,40,751.0,4.28125,37.3193359375,35,427.0,6
277,3.5625,18.93359375,32,315.0,11.890625,275.066162109375,33,1259.0,13.171875,245.573974609375,31,1266.0,7.65625,96.515625,35,782.0,4.671875,29.560302734375,25,420.0,4.515625,30.751708984375,32,452.0,6.421875,71.277099609375,40,685.0,2.71875,13.9677734375,29,272.0,6
278,3.09375,18.4443359375,32,311.0,10.78125,234.6162109375,33,1107.0,12.265625,192.376708984375,30,1072.0,7.625,86.9833984375,41,769.0,4.890625,34.622802734375,30,450.0,4.90625,43.328125,32,505.0,5.78125,56.90234375,33,580.0,2.859375,13.523193359375,27,262.0,6
279,3.625,23.0927734375,31,386.0,11.59375,271.359375,30,1131.0,12.234375,188.318115234375,31,1025.0,7.078125,73.978271484375,41,738.0,4.515625,33.308349609375,28,439.0,5.15625,47.8349609375,34,528.0,6.28125,60.1552734375,27,557.0,3.109375,14.363037109375,28,298.0,6
280,3.75,20.3818359375,32,377.0,12.1875,250.7099609375,31,1157.0,13.046875,233.036865234375,34,1210.0,6.703125,67.669677734375,36,637.0,3.78125,22.5927734375,26,352.0,4.015625,26.464599609375,29,394.0,6.34375,72.3818359375,29,604.0,2.625,8.84375,29,244.0,6
