,0,1,2,3,4,5,6,7,8,9,10,11,12,13,14,15,16,17,18,19,20,21,22,23,24,25,26,27,28,29,30,31,32
0,7.453125,87.698974609375,42,797.0,3.796875,21.450927734375,43,421.0,3.609375,20.236083984375,27,326.0,6.734375,78.048583984375,33,673.0,8.765625,136.290771484375,32,855.0,13.71875,297.2958984375,42,1365.0,23.296875,889.810302734375,35,2350.0,5.90625,57.90625,32,611.0,0
1,7.34375,82.8505859375,42,832.0,3.84375,22.8662109375,45,433.0,3.546875,18.128662109375,27,340.0,6.828125,67.671630859375,35,682.0,9.46875,149.7802734375,36,965.0,15.421875,357.999755859375,39,1535.0,26.375,1102.5625,41,2764.0,6.609375,67.388427734375,37,715.0,0
2,7.46875,95.18359375,36,825.0,4.03125,26.9912109375,35,439.0,3.765625,20.724365234375,37,418.0,7.671875,81.554443359375,42,837.0,9.53125,150.0146484375,35,1012.0,15.375,377.6708984375,34,1538.0,27.453125,1215.271240234375,43,3033.0,6.78125,73.4833984375,41,724.0,0
3,7.375,90.171875,31,764.0,3.875,24.390625,34,409.0,3.890625,23.370849609375,35,400.0,8.0,110.0927734375,38,881.0,9.78125,192.8974609375,33,1065.0,13.09375,288.83984375,36,1277.0,24.3125,990.484375,38,2617.0,5.59375,56.1552734375,38,614.0,0
4,7.71875,84.58984375,38,801.0,4.203125,27.900146484375,36,448.0,3.984375,24.226318359375,35,405.0,8.1875,112.1474609375,34,869.0,10.34375,203.265625,40,1161.0,13.796875,287.843505859375,45,1535.0,24.0625,943.30859375,35,2437.0,6.421875,71.587646484375,37,715.0,0
5,8.078125,98.743896484375,38,840.0,4.28125,28.546875,28,393.0,3.796875,19.546630859375,29,338.0,7.8125,90.46875,36,805.0,9.28125,136.3427734375,37,957.0,13.453125,290.989990234375,39,1426.0,26.34375,1058.7880859375,39,2595.0,6.515625,71.132568359375,39,698.0,0
6,8.140625,97.759521484375,35,773.0,3.921875,23.476318359375,25,344.0,3.5625,17.484375,26,324.0,7.875,88.58984375,40,807.0,8.03125,102.296875,29,758.0,12.015625,272.282958984375,36,1230.0,24.625,925.43359375,38,2484.0,5.640625,48.878662109375,35,592.0,0
7,8.53125,107.3193359375,32,789.0,3.6875,20.12109375,25,327.0,3.46875,18.375,34,349.0,7.40625,78.4130859375,40,715.0,9.140625,130.429443359375,28,897.0,14.34375,412.828125,42,1605.0,26.46875,1148.15234375,34,2610.0,6.65625,68.203125,30,599.0,0
8,9.015625,129.704833984375,35,909.0,4.40625,31.265625,27,433.0,3.546875,18.683349609375,33,346.0,7.109375,80.706787109375,37,718.0,9.8125,144.6552734375,32,1008.0,16.375,489.1474609375,39,1796.0,28.34375,1228.2255859375,35,2818.0,7.46875,85.203125,38,737.0,0
9,8.984375,137.509521484375,38,927.0,5.0,37.4052734375,27,491.0,3.90625,22.234375,30,377.0,7.53125,89.21484375,34,738.0,9.4375,135.921875,34,934.0,17.6875,522.80859375,37,1772.0,26.375,1060.3583984375,36,2691.0,8.328125,119.255615234375,44,952.0,0
10,10.65625,208.6396484375,40,1178.0,5.609375,44.925537109375,33,568.0,4.96875,35.234375,36,514.0,7.734375,96.257568359375,26,697.0,11.234375,212.593505859375,31,1102.0,16.859375,462.837646484375,34,1708.0,27.09375,1139.0927734375,37,2709.0,9.25,148.34375,40,1065.0,0
11,12.625,263.265625,38,1332.0,5.6875,48.77734375,38,613.0,4.8125,33.96484375,37,496.0,8.421875,115.923583984375,31,856.0,12.515625,252.337646484375,31,1289.0,16.796875,446.989990234375,31,1598.0,22.34375,808.1005859375,37,2199.0,10.046875,161.519287109375,39,1098.0,0
12,13.171875,282.997802734375,37,1407.0,5.703125,58.136474609375,33,619.0,3.984375,24.499755859375,32,390.0,8.828125,121.521240234375,40,985.0,10.71875,183.1865234375,37,1143.0,19.140625,530.345458984375,37,1839.0,25.265625,1079.462646484375,43,2747.0,9.9375,151.55859375,45,1136.0,0
13,13.625,306.5849609375,40,1530.0,6.21875,71.2724609375,35,694.0,4.796875,41.169677734375,32,510.0,8.46875,122.03125,39,875.0,11.0,203.3740234375,37,1084.0,19.765625,726.374755859375,36,2116.0,27.328125,1256.099365234375,40,3072.0,9.40625,136.0849609375,41,1080.0,0
14,13.03125,276.71875,42,1432.0,5.734375,58.198974609375,34,606.0,4.9375,39.390625,37,517.0,8.921875,141.468505859375,35,916.0,11.9375,237.5302734375,34,1218.0,18.640625,700.974365234375,36,2063.0,23.8125,980.3037109375,30,2513.0,10.203125,163.847412109375,39,1145.0,0
15,10.875,190.8583984375,36,1100.0,4.953125,38.964599609375,27,461.0,4.234375,22.972412109375,37,372.0,8.46875,120.74609375,34,927.0,11.5,199.77734375,36,1223.0,15.953125,401.114990234375,38,1669.0,28.359375,1350.669677734375,31,2920.0,9.3125,147.6396484375,33,1000.0,0
16,9.890625,144.019287109375,35,913.0,4.421875,27.433349609375,29,393.0,3.828125,20.415771484375,28,311.0,7.765625,94.677490234375,35,777.0,11.25,186.03125,35,1092.0,16.8125,435.0380859375,43,1744.0,22.625,1005.5927734375,39,2463.0,7.90625,115.6630859375,30,867.0,0
17,11.203125,189.023193359375,43,1163.0,4.328125,30.296630859375,33,453.0,3.6875,20.05859375,23,300.0,7.25,91.96875,32,647.0,9.453125,149.847412109375,31,906.0,16.578125,420.435302734375,40,1698.0,16.140625,439.583740234375,42,1722.0,8.0,106.93359375,35,914.0,0
18,9.609375,156.614990234375,41,1060.0,4.0,27.8271484375,34,443.0,4.0,24.15234375,25,347.0,7.734375,102.228271484375,31,781.0,10.578125,177.474365234375,35,1060.0,18.484375,480.618896484375,36,1771.0,19.640625,670.579833984375,44,2205.0,8.0625,108.5380859375,34,869.0,0
19,6.90625,85.58984375,34,734.0,3.859375,26.072021484375,34,405.0,4.234375,25.603271484375,31,403.0,7.9375,97.8583984375,39,851.0,10.96875,184.2802734375,37,1071.0,18.5625,502.8896484375,39,1958.0,17.671875,561.743896484375,42,1964.0,6.9375,85.55859375,34,705.0,0
20,7.53125,95.74609375,33,760.0,4.21875,29.1708984375,36,445.0,4.0625,24.3125,32,426.0,8.390625,114.542724609375,37,876.0,10.265625,175.966552734375,38,1055.0,13.265625,286.874755859375,35,1392.0,15.0,369.609375,38,1616.0,6.03125,57.1552734375,40,618.0,0
21,7.53125,94.8896484375,38,769.0,4.09375,25.5380859375,35,423.0,3.125,16.5146484375,29,327.0,9.875,158.640625,33,981.0,11.203125,205.146240234375,36,1106.0,16.515625,458.245849609375,32,1538.0,16.140625,448.089599609375,34,1723.0,7.578125,89.745849609375,38,765.0,0
22,7.484375,89.995849609375,34,758.0,4.03125,23.65234375,31,380.0,3.21875,16.8193359375,27,325.0,10.59375,172.08984375,34,1077.0,12.265625,221.177490234375,37,1231.0,19.1875,601.5625,32,1850.0,20.09375,684.625,33,2139.0,8.4375,108.7958984375,35,831.0,0
23,7.921875,102.755615234375,33,805.0,4.03125,24.765625,26,366.0,3.9375,22.46875,26,384.0,9.84375,150.93359375,36,989.0,12.046875,259.239990234375,37,1205.0,16.09375,439.71484375,32,1517.0,21.6875,868.9755859375,34,2208.0,7.890625,104.734130859375,36,785.0,0
24,8.203125,110.564208984375,36,875.0,4.3125,28.5302734375,25,416.0,3.625,19.77734375,24,333.0,8.578125,118.888427734375,36,879.0,11.0,227.4443359375,35,1119.0,20.578125,697.300537109375,38,2141.0,24.421875,1048.072021484375,32,2484.0,8.5625,121.3896484375,39,939.0,0
25,8.21875,102.6875,35,855.0,4.328125,27.216552734375,27,394.0,3.5625,20.65234375,25,340.0,8.765625,129.032958984375,33,917.0,10.515625,179.902099609375,36,1085.0,21.859375,757.827880859375,39,2299.0,23.90625,932.84375,35,2456.0,8.1875,101.05859375,39,885.0,0
26,8.5625,118.0927734375,30,821.0,4.328125,32.536865234375,26,416.0,4.3125,28.75,32,429.0,9.90625,154.83984375,39,1087.0,10.984375,193.079833984375,39,1185.0,18.90625,610.8662109375,38,1923.0,21.390625,770.491943359375,39,2159.0,6.84375,70.3583984375,35,681.0,0
27,9.15625,134.875,29,816.0,4.21875,31.5,25,420.0,4.328125,28.679443359375,36,426.0,10.1875,148.9208984375,43,1088.0,11.890625,222.921630859375,38,1284.0,16.65625,510.24609375,40,1790.0,19.328125,633.781005859375,38,1973.0,6.3125,63.09375,35,638.0,0
28,9.546875,146.032958984375,33,897.0,3.96875,24.96484375,25,387.0,4.171875,28.531005859375,29,386.0,10.796875,174.400146484375,39,1075.0,12.546875,264.986083984375,38,1368.0,13.78125,339.6162109375,41,1433.0,19.828125,690.118896484375,37,2092.0,7.1875,90.6240234375,39,788.0,0
29,9.34375,135.8740234375,38,985.0,4.140625,26.972412109375,25,417.0,4.296875,28.302490234375,23,365.0,9.875,155.4755859375,39,1007.0,9.796875,167.382568359375,40,1010.0,18.734375,608.388427734375,41,2053.0,21.09375,737.953125,42,2297.0,6.515625,80.239990234375,30,693.0,0
30,8.15625,98.2646484375,38,828.0,4.140625,25.550537109375,26,380.0,3.921875,20.238037109375,22,315.0,7.3125,86.2177734375,36,745.0,8.46875,109.0224609375,36,759.0,18.4375,560.359375,42,2025.0,19.078125,553.657958984375,42,2028.0,6.296875,62.390380859375,27,610.0,0
31,7.40625,96.6943359375,35,737.0,3.953125,23.400146484375,25,349.0,3.40625,14.6552734375,22,266.0,6.4375,64.18359375,34,636.0,9.546875,131.292724609375,36,909.0,16.078125,437.042724609375,39,1697.0,19.8125,593.0849609375,39,1946.0,7.34375,87.49609375,30,742.0,0
32,8.875,130.08984375,41,965.0,3.546875,19.421630859375,25,347.0,2.984375,12.784912109375,28,270.0,7.578125,102.898193359375,38,828.0,10.4375,164.71484375,41,1128.0,17.5,544.1318359375,40,1937.0,17.734375,552.716552734375,33,1686.0,6.328125,71.585693359375,31,652.0,0
33,8.921875,122.279052734375,38,928.0,3.671875,20.146240234375,31,353.0,3.578125,20.511474609375,29,329.0,8.1875,115.6396484375,36,848.0,12.015625,218.302490234375,40,1278.0,17.984375,508.462646484375,44,2064.0,17.75,564.33984375,32,1795.0,6.0,63.1005859375,35,607.0,0
34,7.9375,94.9521484375,34,808.0,3.859375,23.140380859375,35,388.0,4.1875,29.7646484375,21,404.0,7.5,83.99609375,38,745.0,10.75,196.9130859375,40,1147.0,18.3125,491.9755859375,41,2003.0,22.375,757.7802734375,36,2263.0,8.421875,112.968505859375,41,920.0,0
35,8.453125,112.876708984375,36,940.0,4.140625,29.775146484375,31,435.0,4.390625,33.704833984375,26,461.0,7.921875,102.132568359375,39,805.0,10.046875,198.075927734375,40,1084.0,20.109375,609.015380859375,44,2176.0,24.9375,904.1474609375,42,2738.0,9.890625,133.939208984375,44,1079.0,0
36,7.0,85.640625,36,762.0,3.828125,26.823974609375,34,404.0,3.890625,25.583740234375,26,392.0,7.375,91.671875,36,776.0,9.03125,152.3115234375,37,957.0,19.265625,608.263427734375,41,2090.0,25.28125,1041.15234375,40,2676.0,7.28125,79.1787109375,30,717.0,0
37,7.625,94.74609375,36,805.0,3.765625,24.829833984375,39,417.0,3.359375,17.665771484375,26,326.0,7.328125,81.988037109375,39,794.0,9.34375,145.24609375,40,979.0,16.65625,448.2099609375,34,1696.0,28.09375,1261.8974609375,36,2818.0,5.9375,56.87109375,26,560.0,0
38,8.65625,120.2099609375,36,928.0,3.890625,25.972412109375,38,425.0,3.375,18.5693359375,30,340.0,8.8125,120.7724609375,41,981.0,10.5625,189.1474609375,41,1184.0,14.265625,315.628662109375,37,1385.0,24.015625,906.823974609375,36,2455.0,6.40625,65.8271484375,33,610.0,0
39,8.359375,106.296630859375,39,869.0,3.84375,21.9052734375,37,399.0,3.46875,21.5224609375,24,342.0,8.515625,116.864990234375,39,959.0,10.46875,198.8662109375,38,1182.0,11.28125,218.6708984375,36,1088.0,19.921875,629.034912109375,35,1951.0,6.515625,70.239990234375,35,656.0,0
40,7.984375,107.310302734375,39,858.0,4.09375,22.84375,38,409.0,3.84375,23.1630859375,28,375.0,7.265625,77.909912109375,39,799.0,10.203125,169.437255859375,33,1032.0,13.21875,284.8740234375,36,1341.0,21.0625,689.58984375,31,1893.0,7.25,80.55859375,35,737.0,0
41,7.921875,106.685302734375,38,857.0,3.765625,22.265380859375,30,361.0,3.65625,22.609375,27,362.0,7.125,76.125,37,753.0,8.75,113.5224609375,36,849.0,15.078125,365.458740234375,38,1551.0,18.4375,520.5458984375,29,1563.0,6.90625,78.6865234375,36,727.0,0
42,7.578125,90.337646484375,33,760.0,3.515625,21.435302734375,23,322.0,3.546875,22.997802734375,22,338.0,8.921875,127.470458984375,36,928.0,11.390625,224.132568359375,41,1178.0,17.0625,492.62109375,40,1821.0,18.140625,487.704833984375,33,1729.0,6.609375,73.556396484375,36,720.0,0
43,5.265625,50.929443359375,30,515.0,3.03125,15.3125,28,298.0,3.796875,23.956787109375,25,377.0,9.765625,144.863037109375,38,1012.0,27.109375,1416.025146484375,37,2769.0,18.96875,567.2958984375,38,1979.0,15.6875,460.77734375,33,1521.0,5.71875,56.921875,30,570.0,0
44,3.359375,18.259521484375,31,333.0,2.734375,10.736083984375,30,261.0,3.78125,20.9287109375,28,357.0,8.109375,103.489990234375,39,830.0,34.34375,1942.0380859375,37,3736.0,16.0625,426.3115234375,34,1691.0,7.9375,205.7021484375,29,732.0,3.671875,26.425537109375,24,326.0,0
45,2.46875,10.62109375,25,243.0,2.71875,10.3115234375,27,230.0,3.46875,16.2021484375,22,287.0,6.59375,71.52734375,34,622.0,28.34375,1323.6552734375,41,3097.0,13.5625,307.21484375,35,1419.0,3.953125,25.454833984375,25,340.0,2.734375,12.956787109375,26,267.0,1
46,2.359375,9.745849609375,20,228.0,2.8125,12.83984375,24,276.0,3.953125,24.827880859375,25,367.0,6.453125,68.800537109375,32,642.0,24.71875,1024.9599609375,37,2674.0,14.109375,289.771240234375,38,1385.0,4.625,40.0,31,465.0,2.75,12.234375,32,279.0,1
47,2.53125,10.9599609375,22,251.0,2.953125,14.109130859375,26,312.0,4.515625,31.044677734375,32,444.0,6.75,76.1943359375,37,746.0,20.046875,716.007568359375,33,2159.0,13.3125,251.65625,41,1384.0,5.015625,41.950927734375,36,527.0,2.890625,12.820068359375,29,294.0,1
48,2.15625,7.6708984375,25,212.0,2.625,11.46484375,29,270.0,3.5,18.7880859375,31,342.0,7.234375,77.620849609375,39,755.0,20.5625,852.703125,33,2125.0,13.984375,285.982177734375,45,1547.0,4.171875,27.191162109375,38,432.0,2.671875,11.245849609375,28,262.0,1
49,2.109375,7.128662109375,25,201.0,2.359375,9.265380859375,25,230.0,3.21875,17.5537109375,32,342.0,7.1875,91.43359375,36,756.0,26.96875,1311.9833984375,35,2944.0,15.90625,379.24609375,43,1754.0,4.1875,27.625,38,440.0,2.625,10.4052734375,35,269.0,1
50,2.15625,7.55859375,27,212.0,2.09375,6.4375,19,192.0,3.171875,17.263427734375,26,320.0,5.734375,67.741943359375,30,601.0,28.46875,1258.96484375,37,3015.0,15.953125,404.413818359375,38,1700.0,3.46875,20.12109375,32,352.0,2.53125,9.4365234375,38,260.0,1
51,1.875,5.375,33,198.0,2.375,7.8583984375,26,220.0,3.171875,13.835693359375,30,303.0,6.0,60.5771484375,31,627.0,27.140625,1074.532958984375,42,3007.0,13.078125,323.734130859375,37,1462.0,2.953125,12.763427734375,33,298.0,2.25,7.0693359375,36,225.0,1
52,1.75,5.3427734375,28,161.0,2.5,9.65234375,26,233.0,3.53125,18.21484375,31,342.0,6.484375,74.386474609375,32,636.0,25.1875,976.46484375,41,2601.0,12.359375,318.138427734375,36,1323.0,3.1875,14.6552734375,30,302.0,2.0625,6.4912109375,31,207.0,1
53,1.859375,5.704833984375,22,168.0,2.59375,10.87109375,25,253.0,3.53125,18.6552734375,27,343.0,7.046875,74.277099609375,37,722.0,23.203125,848.628662109375,40,2367.0,16.421875,436.130615234375,35,1687.0,3.515625,20.099365234375,26,342.0,2.421875,9.577880859375,26,237.0,1
54,1.640625,4.427490234375,18,156.0,2.734375,11.138427734375,27,251.0,3.109375,14.296630859375,27,295.0,7.234375,72.404052734375,41,732.0,22.078125,830.773193359375,39,2340.0,15.5625,374.43359375,36,1608.0,3.40625,19.87109375,23,313.0,2.34375,9.18359375,24,230.0,1
55,1.90625,6.40234375,25,198.0,2.484375,9.099365234375,29,238.0,2.640625,10.359130859375,24,242.0,6.09375,56.0458984375,39,618.0,20.046875,684.081787109375,35,2029.0,11.21875,215.6474609375,38,1217.0,3.0625,13.58984375,30,303.0,2.5,9.0458984375,33,260.0,1
56,2.484375,11.450927734375,28,267.0,2.796875,10.454833984375,28,258.0,3.140625,14.458740234375,28,302.0,6.625,66.93359375,37,634.0,20.46875,693.6318359375,35,2053.0,12.859375,284.480224609375,41,1354.0,3.21875,16.3427734375,32,339.0,2.921875,13.544677734375,33,302.0,1
57,2.328125,10.835693359375,24,246.0,2.5625,8.7802734375,29,241.0,3.0625,14.27734375,29,299.0,6.359375,66.159912109375,35,611.0,21.5625,768.0537109375,34,2226.0,14.90625,427.5849609375,38,1534.0,3.09375,17.390625,30,328.0,2.46875,11.4755859375,25,252.0,1
58,2.390625,9.550537109375,25,229.0,2.421875,7.755615234375,35,236.0,2.96875,12.921875,27,277.0,5.953125,59.245849609375,35,587.0,24.0625,998.21875,33,2464.0,14.5,410.05859375,33,1516.0,3.53125,21.28125,29,370.0,2.671875,11.439208984375,24,259.0,1
59,2.46875,10.3818359375,29,245.0,2.28125,7.2724609375,27,218.0,2.84375,12.4521484375,23,275.0,6.59375,67.2099609375,37,657.0,23.828125,941.140380859375,39,2454.0,15.09375,362.9130859375,38,1575.0,4.125,26.703125,32,410.0,2.796875,13.771240234375,26,295.0,1
60,2.34375,8.8818359375,27,216.0,1.984375,5.505615234375,25,192.0,2.734375,11.322021484375,27,266.0,6.3125,64.265625,40,662.0,18.765625,532.540771484375,39,1978.0,16.65625,405.90234375,42,1816.0,5.421875,48.939208984375,34,558.0,2.609375,12.816162109375,24,268.0,1
61,2.234375,7.253662109375,29,214.0,2.40625,8.953125,33,250.0,3.125,14.40234375,31,298.0,5.078125,47.738037109375,39,535.0,18.96875,598.1787109375,35,2025.0,15.390625,344.616943359375,37,1541.0,6.421875,66.066162109375,30,624.0,2.59375,11.1552734375,24,250.0,1
62,2.015625,5.800537109375,31,207.0,2.453125,9.329833984375,31,245.0,2.8125,11.25,24,265.0,4.5,32.0380859375,40,439.0,18.40625,581.5458984375,40,2043.0,13.015625,271.019287109375,35,1288.0,5.625,51.96484375,29,542.0,2.203125,7.548583984375,24,217.0,1
63,1.78125,4.609375,20,155.0,2.234375,6.450927734375,23,191.0,2.515625,7.470458984375,19,207.0,4.484375,29.851318359375,37,420.0,16.25,470.40234375,41,1708.0,16.375,479.6552734375,40,1713.0,5.53125,50.7255859375,31,555.0,2.0,5.6162109375,18,175.0,1
64,2.09375,6.3193359375,22,175.0,2.5625,8.4052734375,24,216.0,3.234375,14.597412109375,23,267.0,5.28125,44.58984375,32,505.0,20.640625,737.890380859375,37,2130.0,18.484375,574.068115234375,39,1846.0,7.234375,94.980224609375,37,774.0,2.65625,9.40234375,25,241.0,1
65,2.34375,7.93359375,27,209.0,2.234375,7.353271484375,21,193.0,3.03125,13.875,28,267.0,5.65625,49.8662109375,36,568.0,17.65625,561.4208984375,37,1828.0,13.890625,337.796630859375,36,1391.0,6.15625,77.828125,33,637.0,2.65625,10.6318359375,26,252.0,1
66,1.953125,7.173583984375,23,198.0,1.8125,4.875,16,144.0,2.453125,9.134521484375,29,238.0,4.71875,37.33984375,33,452.0,14.1875,380.203125,38,1448.0,10.65625,185.96875,32,1033.0,4.28125,29.2412109375,35,457.0,2.078125,7.558349609375,19,195.0,1
67,1.828125,6.484130859375,21,190.0,2.15625,6.7099609375,17,183.0,3.15625,15.078125,28,318.0,4.875,40.02734375,33,492.0,16.03125,444.05859375,35,1564.0,11.15625,205.625,31,1112.0,4.34375,35.46484375,40,473.0,2.15625,7.5849609375,20,198.0,1
68,2.0,5.921875,25,183.0,2.296875,7.388427734375,25,217.0,3.375,17.02734375,29,338.0,5.359375,43.700927734375,34,532.0,15.625,397.37109375,33,1497.0,12.25,265.52734375,37,1292.0,3.65625,26.1318359375,33,378.0,2.125,6.96484375,23,201.0,1
69,2.015625,6.870849609375,24,190.0,2.140625,6.111083984375,24,191.0,2.890625,12.702880859375,29,272.0,4.8125,39.078125,28,445.0,17.828125,589.314208984375,40,1964.0,12.203125,277.636474609375,33,1275.0,3.15625,15.4130859375,31,310.0,2.34375,8.3349609375,26,228.0,1
70,1.90625,6.1865234375,20,178.0,2.125,6.18359375,21,190.0,2.640625,9.572021484375,26,229.0,5.40625,54.140625,35,569.0,20.875,750.8662109375,39,2227.0,12.46875,282.21484375,36,1349.0,3.171875,15.577880859375,35,322.0,2.359375,7.972412109375,28,228.0,1
71,1.84375,5.0771484375,21,167.0,2.265625,7.335693359375,26,211.0,2.5,8.4443359375,21,211.0,5.625,56.515625,33,579.0,19.828125,662.765380859375,35,2016.0,12.625,259.2177734375,41,1304.0,3.046875,13.831787109375,31,284.0,2.0,6.02734375,23,185.0,1
72,1.953125,6.292724609375,23,202.0,2.46875,10.1552734375,23,249.0,2.796875,12.634521484375,27,288.0,4.59375,36.9677734375,28,467.0,18.90625,587.2958984375,34,1990.0,10.546875,171.825927734375,35,1077.0,2.90625,14.7255859375,29,280.0,2.046875,6.991943359375,26,214.0,1
73,1.734375,5.427490234375,18,176.0,2.328125,9.947021484375,17,221.0,2.9375,14.3740234375,30,291.0,5.65625,54.96484375,28,541.0,22.0625,697.7255859375,40,2375.0,8.390625,121.425537109375,29,818.0,2.859375,13.409912109375,31,267.0,1.921875,6.714599609375,27,203.0,1
74,1.6875,4.96484375,22,172.0,2.09375,7.2412109375,22,195.0,2.3125,8.3349609375,24,216.0,6.34375,69.7177734375,35,649.0,20.21875,622.99609375,43,2154.0,8.421875,120.489990234375,31,848.0,2.53125,10.53125,24,227.0,1.75,5.6396484375,24,170.0,1
75,1.984375,5.661865234375,28,192.0,2.421875,7.919677734375,29,228.0,2.484375,9.130615234375,26,208.0,6.03125,59.49609375,37,617.0,15.65625,417.93359375,39,1676.0,10.734375,199.337646484375,37,1129.0,3.125,18.25,29,321.0,2.1875,7.2724609375,24,196.0,1
76,1.890625,5.111083984375,26,178.0,2.265625,7.103271484375,25,202.0,2.796875,13.044677734375,27,273.0,5.546875,48.058349609375,40,605.0,18.6875,516.1787109375,39,2047.0,14.265625,363.700927734375,38,1579.0,3.484375,20.599365234375,36,356.0,2.296875,8.441162109375,25,224.0,1
77,1.71875,5.09375,20,170.0,1.890625,5.786865234375,20,174.0,2.546875,11.015380859375,27,273.0,5.109375,40.241943359375,41,570.0,19.328125,558.589599609375,40,2121.0,13.671875,343.437255859375,38,1490.0,2.953125,13.038818359375,32,284.0,2.171875,7.433349609375,27,217.0,1
78,2.1875,8.43359375,24,227.0,2.484375,9.734130859375,27,236.0,2.828125,12.782958984375,32,296.0,5.234375,42.978271484375,34,542.0,18.25,573.0380859375,37,2022.0,9.75,158.09375,35,965.0,2.59375,9.71484375,24,239.0,2.234375,7.359130859375,25,221.0,1
79,3.046875,19.702880859375,30,313.0,2.828125,11.638427734375,32,274.0,3.28125,19.4443359375,26,316.0,6.1875,73.74609375,31,637.0,19.890625,710.841552734375,39,2199.0,11.875,223.1474609375,39,1216.0,3.09375,15.4365234375,23,294.0,2.453125,9.388427734375,25,256.0,1
80,2.625,16.5537109375,30,265.0,2.015625,6.101318359375,27,188.0,2.953125,16.628662109375,24,283.0,7.15625,92.9208984375,38,795.0,19.21875,640.1318359375,44,2108.0,12.3125,249.9052734375,40,1333.0,3.453125,16.911865234375,26,319.0,2.1875,8.21484375,21,219.0,1
81,1.765625,5.273193359375,28,173.0,2.140625,7.978271484375,25,217.0,4.03125,29.75,31,415.0,6.578125,74.058349609375,37,732.0,17.859375,510.491943359375,39,1927.0,9.90625,169.0458984375,37,1022.0,3.046875,13.286865234375,28,270.0,1.8125,5.7333984375,14,157.0,1
82,1.640625,4.197021484375,21,165.0,2.671875,11.222412109375,26,275.0,4.421875,30.929443359375,29,424.0,5.546875,51.878662109375,33,572.0,17.703125,471.433349609375,39,1867.0,10.296875,181.841552734375,36,1071.0,2.703125,12.739990234375,29,268.0,2.0,6.890625,21,192.0,1
83,1.671875,3.665771484375,23,165.0,2.453125,8.765380859375,26,239.0,2.640625,9.603271484375,27,246.0,5.109375,43.296630859375,38,544.0,18.75,536.7021484375,46,2080.0,8.984375,137.892333984375,35,978.0,2.34375,9.27734375,24,230.0,1.953125,5.790771484375,27,199.0,1
84,1.859375,4.673583984375,27,178.0,2.640625,11.152099609375,33,284.0,2.578125,10.501708984375,31,243.0,5.015625,43.677490234375,35,521.0,22.265625,805.898193359375,48,2570.0,9.0,143.765625,38,978.0,2.328125,8.109130859375,22,229.0,1.921875,5.478271484375,25,185.0,1
85,2.171875,6.322021484375,26,218.0,2.6875,11.765625,32,288.0,2.828125,11.952880859375,29,260.0,4.953125,36.068115234375,38,505.0,21.515625,742.611083984375,40,2255.0,10.3125,179.55859375,39,1085.0,2.78125,11.734375,27,296.0,2.046875,6.398193359375,26,208.0,1
86,2.03125,5.5693359375,29,205.0,2.296875,7.224365234375,25,227.0,2.796875,10.632568359375,23,226.0,4.9375,33.9990234375,36,490.0,19.34375,567.6943359375,38,1955.0,10.9375,215.37109375,38,1236.0,2.875,13.0693359375,32,307.0,1.984375,5.880615234375,23,209.0,1
87,2.359375,9.331787109375,25,224.0,1.9375,5.5068359375,20,178.0,2.65625,10.0693359375,27,228.0,3.8125,25.12109375,30,372.0,16.53125,486.953125,43,1819.0,9.75,196.21484375,36,1067.0,4.265625,39.380615234375,29,387.0,3.859375,31.716552734375,27,394.0,1
88,3.265625,17.579833984375,28,318.0,1.921875,5.507568359375,22,176.0,2.046875,6.085693359375,29,208.0,2.953125,13.081787109375,33,286.0,9.3125,188.80859375,36,972.0,6.484375,87.140380859375,36,656.0,8.078125,137.781005859375,23,670.0,5.6875,54.5146484375,37,618.0,1
89,2.984375,14.950927734375,27,274.0,2.234375,6.552490234375,27,203.0,2.03125,5.109375,27,194.0,2.796875,10.659912109375,34,261.0,6.09375,62.6875,33,556.0,6.171875,58.263427734375,39,657.0,10.609375,198.333740234375,25,991.0,5.625,59.6552734375,36,630.0,2
90,2.4375,10.7958984375,24,241.0,2.125,6.5380859375,24,197.0,2.0625,4.4208984375,23,175.0,2.953125,12.236083984375,28,266.0,7.5,111.65625,33,695.0,6.15625,57.12109375,36,640.0,9.84375,156.4208984375,28,966.0,5.515625,56.907958984375,36,579.0,2
91,2.578125,10.370849609375,30,265.0,1.765625,4.191162109375,19,152.0,1.828125,3.861083984375,14,156.0,2.984375,11.427490234375,23,241.0,8.203125,123.284912109375,31,706.0,5.640625,52.763427734375,24,558.0,9.046875,129.898193359375,32,900.0,5.71875,50.08984375,35,566.0,2
92,4.640625,51.956787109375,35,461.0,1.953125,4.954833984375,15,172.0,2.0625,5.359375,14,164.0,2.796875,10.710693359375,25,241.0,7.515625,105.868896484375,27,729.0,6.5,64.6943359375,21,589.0,9.09375,126.796875,35,878.0,6.0,67.30859375,34,633.0,2
93,7.78125,110.52734375,35,812.0,2.390625,9.046630859375,20,244.0,2.65625,10.0068359375,24,229.0,3.34375,18.8896484375,30,327.0,10.546875,219.025146484375,29,1036.0,8.109375,104.782958984375,28,800.0,10.765625,181.548583984375,34,1034.0,5.5,58.3896484375,36,600.0,2
94,7.625,107.4521484375,38,830.0,2.265625,8.058349609375,28,242.0,2.75,12.109375,32,280.0,4.046875,26.603271484375,33,419.0,12.8125,307.6943359375,36,1317.0,7.28125,90.78125,34,742.0,12.140625,227.425537109375,35,1225.0,5.375,46.9287109375,36,555.0,2
95,4.59375,51.2255859375,31,508.0,2.140625,6.148193359375,31,212.0,2.453125,9.540771484375,31,243.0,3.6875,22.0380859375,29,371.0,11.28125,247.390625,36,1224.0,6.640625,76.066162109375,36,681.0,12.109375,234.171630859375,33,1214.0,7.09375,91.3583984375,36,740.0,2
96,2.875,14.25,27,293.0,2.1875,6.99609375,27,207.0,2.15625,6.93359375,22,188.0,3.015625,15.396240234375,28,299.0,10.203125,197.968505859375,36,1112.0,7.765625,105.109130859375,35,816.0,12.84375,268.7099609375,30,1224.0,8.5625,126.7568359375,40,909.0,2
97,2.484375,10.728271484375,29,246.0,2.078125,6.390380859375,22,190.0,2.171875,7.103271484375,18,182.0,2.859375,15.462646484375,27,288.0,9.453125,167.947021484375,35,968.0,6.96875,85.7802734375,32,705.0,10.890625,219.027099609375,29,1048.0,7.484375,103.298583984375,37,804.0,2
98,2.5625,9.6005859375,35,264.0,2.21875,6.953125,26,211.0,2.390625,7.870849609375,24,225.0,2.71875,13.2333984375,26,286.0,8.953125,142.472412109375,38,922.0,6.078125,58.738037109375,31,582.0,10.65625,201.140625,34,1099.0,6.421875,75.439208984375,33,701.0,2
99,2.65625,9.9755859375,37,262.0,2.0625,6.09375,22,203.0,2.25,6.171875,29,213.0,2.90625,13.6865234375,25,280.0,9.578125,179.806396484375,38,992.0,6.546875,68.042724609375,29,584.0,10.84375,180.7568359375,33,1041.0,4.90625,44.3271484375,34,513.0,2
100,2.515625,10.261474609375,28,242.0,1.8125,4.62109375,18,160.0,1.9375,5.2021484375,24,162.0,3.125,16.0849609375,28,286.0,9.359375,207.544677734375,36,966.0,5.828125,60.906005859375,33,556.0,10.53125,174.2880859375,34,996.0,4.671875,35.447021484375,33,454.0,2
101,2.390625,9.601318359375,25,239.0,2.0,5.18359375,23,175.0,2.015625,6.177490234375,23,173.0,2.984375,15.370849609375,28,290.0,7.890625,174.521240234375,34,841.0,5.71875,52.9990234375,36,559.0,12.9375,272.18359375,39,1387.0,6.484375,65.566162109375,38,678.0,2
102,2.171875,7.318115234375,22,201.0,2.21875,5.8974609375,26,206.0,2.3125,7.21875,27,218.0,2.890625,13.982177734375,35,291.0,7.515625,121.212646484375,35,801.0,6.921875,77.114990234375,35,688.0,12.65625,280.8193359375,37,1396.0,6.8125,74.58984375,36,725.0,2
103,2.078125,6.642333984375,22,211.0,2.078125,5.111083984375,22,186.0,2.15625,6.0146484375,22,206.0,2.640625,10.103271484375,37,266.0,7.921875,103.917724609375,35,811.0,6.78125,76.3818359375,33,693.0,11.046875,203.079833984375,35,1088.0,6.484375,69.794677734375,34,683.0,2
104,1.765625,5.031005859375,20,180.0,1.796875,4.009521484375,22,162.0,1.90625,5.0224609375,26,187.0,2.625,10.28125,31,272.0,8.328125,119.509521484375,36,840.0,6.375,62.08984375,36,627.0,10.546875,160.234130859375,31,996.0,5.578125,53.980224609375,37,598.0,2
105,1.859375,6.687255859375,20,180.0,1.796875,4.277099609375,23,167.0,1.828125,5.429443359375,28,184.0,2.96875,14.734375,29,321.0,8.75,150.8427734375,36,907.0,5.953125,51.536865234375,37,574.0,9.1875,133.390625,30,880.0,4.6875,40.25,35,498.0,2
106,2.375,8.99609375,24,225.0,1.984375,5.763427734375,22,190.0,2.15625,7.046875,26,196.0,3.234375,16.708740234375,31,330.0,8.59375,155.4130859375,36,907.0,6.15625,62.0068359375,31,608.0,8.640625,117.519287109375,28,775.0,5.875,65.8896484375,27,572.0,2
107,2.359375,8.165771484375,21,193.0,2.015625,6.503662109375,18,188.0,2.46875,7.90625,28,216.0,3.640625,19.109130859375,33,328.0,10.1875,196.2490234375,39,1110.0,6.625,70.65625,30,683.0,10.03125,158.9443359375,32,968.0,6.21875,67.6787109375,27,579.0,2
108,2.546875,10.628662109375,26,233.0,2.015625,6.202880859375,19,176.0,2.265625,7.447021484375,25,216.0,3.65625,19.8818359375,35,348.0,11.734375,258.062255859375,42,1340.0,6.84375,74.59375,32,707.0,9.984375,171.982177734375,38,1010.0,5.84375,55.609375,31,548.0,2
109,3.875,28.46875,31,401.0,2.359375,7.640380859375,28,229.0,2.390625,9.046630859375,25,243.0,3.5,20.8125,36,386.0,9.703125,200.952880859375,36,1073.0,6.734375,83.195068359375,34,726.0,9.40625,148.2099609375,34,926.0,6.71875,79.3583984375,32,657.0,2
110,3.53125,24.8115234375,26,359.0,2.546875,8.335693359375,29,231.0,2.46875,8.80859375,22,224.0,3.5,19.7958984375,32,373.0,7.9375,120.7177734375,29,827.0,6.421875,73.859130859375,33,690.0,10.6875,195.9755859375,28,1084.0,6.703125,79.366943359375,38,759.0,2
111,2.59375,9.99609375,32,251.0,2.25,7.2490234375,25,201.0,2.1875,7.1630859375,20,189.0,3.34375,15.9755859375,30,326.0,8.40625,106.734375,33,850.0,6.265625,59.068115234375,36,653.0,10.046875,192.394287109375,27,1040.0,7.046875,90.761474609375,38,802.0,2
112,2.359375,8.945068359375,33,230.0,1.984375,6.142333984375,25,192.0,1.9375,5.6474609375,28,181.0,3.046875,13.724365234375,35,307.0,8.109375,114.284912109375,31,787.0,6.0,53.30859375,34,587.0,8.296875,130.474365234375,30,844.0,6.75,81.58984375,31,670.0,2
113,2.28125,8.390625,25,222.0,1.953125,5.943115234375,26,192.0,1.8125,4.84375,26,185.0,2.640625,10.681396484375,28,247.0,6.828125,90.550537109375,30,627.0,5.40625,45.4365234375,31,507.0,9.53125,188.6708984375,35,968.0,6.65625,76.5537109375,28,608.0,2
114,2.328125,9.384521484375,28,244.0,1.890625,5.370849609375,24,178.0,1.921875,5.228271484375,26,200.0,2.4375,9.515625,23,230.0,5.8125,57.02734375,33,569.0,5.34375,41.2646484375,31,509.0,10.90625,232.8193359375,37,1164.0,6.09375,71.5771484375,31,616.0,2
115,2.234375,8.349365234375,27,218.0,1.734375,3.952880859375,19,154.0,2.265625,7.075927734375,26,224.0,3.125,15.5849609375,29,295.0,6.59375,73.7099609375,33,678.0,6.109375,58.390380859375,31,616.0,10.546875,183.747802734375,36,1114.0,5.09375,47.52734375,34,533.0,2
116,2.53125,10.3896484375,23,230.0,1.90625,5.27734375,16,166.0,2.625,9.015625,26,246.0,3.546875,19.103271484375,32,346.0,8.15625,102.15234375,37,830.0,6.234375,63.640380859375,32,643.0,9.09375,143.71484375,33,942.0,5.203125,50.970458984375,27,510.0,2
117,2.40625,8.8505859375,30,236.0,2.0625,6.4912109375,27,206.0,2.40625,8.2724609375,25,240.0,2.921875,14.157958984375,28,305.0,6.546875,70.935302734375,36,659.0,5.4375,47.53125,29,537.0,8.421875,128.794677734375,42,927.0,4.890625,49.179443359375,24,474.0,2
118,2.15625,7.30859375,32,221.0,2.15625,7.7568359375,29,225.0,2.15625,7.30859375,22,216.0,2.8125,12.3896484375,25,274.0,5.515625,48.960693359375,41,577.0,5.59375,48.4677734375,34,558.0,9.546875,142.593505859375,46,1060.0,6.484375,90.163818359375,28,653.0,2
119,2.5,9.4208984375,37,266.0,2.203125,7.546630859375,23,210.0,2.140625,6.950927734375,23,210.0,3.203125,15.866943359375,25,309.0,7.390625,86.564208984375,45,772.0,5.9375,55.28125,39,599.0,9.28125,133.3271484375,38,967.0,7.375,101.640625,32,758.0,2
120,2.453125,8.413818359375,35,245.0,1.859375,4.691162109375,22,170.0,2.03125,6.46484375,21,195.0,3.140625,16.716552734375,27,309.0,6.78125,77.9365234375,40,698.0,6.59375,77.3974609375,32,660.0,7.484375,86.534912109375,36,773.0,5.765625,55.583740234375,37,629.0,2
121,1.890625,6.193115234375,20,176.0,1.765625,3.950927734375,18,153.0,2.203125,6.183349609375,20,186.0,3.40625,16.93359375,29,325.0,6.328125,60.349365234375,36,645.0,6.59375,78.8505859375,31,658.0,9.0,122.1162109375,40,955.0,5.265625,45.583740234375,31,546.0,2
122,1.890625,6.292724609375,22,184.0,1.890625,5.294677734375,18,178.0,2.125,5.6474609375,25,193.0,3.640625,18.183349609375,28,353.0,8.21875,111.3974609375,34,804.0,5.734375,58.505615234375,29,561.0,9.0625,129.3740234375,37,910.0,4.609375,38.984130859375,25,445.0,2
123,2.140625,6.767333984375,22,189.0,1.8125,5.328125,18,175.0,1.9375,5.2177734375,22,181.0,3.203125,14.634521484375,30,305.0,7.765625,122.019287109375,33,766.0,5.21875,46.52734375,28,528.0,8.125,95.5146484375,30,697.0,4.28125,40.9052734375,27,410.0,2
124,2.46875,8.96875,21,226.0,1.75,3.80859375,21,161.0,1.96875,4.3818359375,19,161.0,3.3125,15.18359375,35,307.0,10.25,206.21875,34,1019.0,4.9375,37.1083984375,31,506.0,10.984375,196.476318359375,31,1050.0,7.171875,108.253662109375,37,776.0,2
125,2.453125,9.220458984375,26,245.0,1.75,3.68359375,24,162.0,1.96875,4.65625,30,172.0,2.984375,13.507568359375,29,277.0,11.484375,226.337646484375,36,1082.0,5.09375,36.0927734375,34,491.0,11.046875,211.786865234375,36,1203.0,7.484375,110.489990234375,38,837.0,2
126,2.234375,7.173583984375,25,200.0,1.71875,4.0615234375,18,151.0,2.046875,5.691162109375,25,192.0,2.5,9.078125,26,230.0,8.328125,117.105224609375,36,806.0,5.03125,35.0380859375,29,479.0,9.03125,155.68359375,40,1006.0,5.484375,54.788818359375,34,602.0,2
127,2.296875,8.452880859375,24,212.0,1.75,4.52734375,15,157.0,2.109375,6.259521484375,16,173.0,3.109375,13.183349609375,24,258.0,8.296875,122.890380859375,26,773.0,5.46875,46.96484375,28,535.0,8.875,146.99609375,39,981.0,5.078125,43.265380859375,30,506.0,2
128,2.46875,9.77734375,29,250.0,1.9375,5.1943359375,18,164.0,2.125,6.21484375,23,165.0,3.328125,18.122802734375,19,299.0,9.09375,159.5693359375,25,951.0,6.1875,61.4052734375,35,625.0,9.8125,145.2802734375,33,982.0,5.28125,52.8662109375,29,512.0,2
129,2.71875,11.0537109375,30,248.0,2.609375,12.255615234375,21,230.0,3.109375,21.009521484375,26,278.0,4.734375,73.105224609375,20,457.0,11.0,253.2958984375,26,1035.0,9.65625,221.12109375,32,959.0,12.765625,232.952880859375,32,1190.0,5.59375,58.09375,32,542.0,2
130,3.046875,16.007568359375,25,301.0,4.03125,31.9521484375,24,418.0,5.8125,72.03125,26,597.0,11.4375,293.21484375,27,1127.0,27.9375,1474.33984375,29,2675.0,18.5,677.3896484375,31,2019.0,12.640625,236.048583984375,39,1281.0,5.15625,45.8037109375,36,532.0,2
131,3.09375,16.3125,24,303.0,4.203125,31.986083984375,27,440.0,6.515625,76.534912109375,34,694.0,13.6875,327.37109375,37,1393.0,36.359375,1886.322021484375,41,3679.0,23.578125,914.249755859375,35,2625.0,7.984375,109.390380859375,39,868.0,4.109375,28.503662109375,36,427.0,3
132,3.1875,16.7333984375,26,301.0,4.375,29.3271484375,33,423.0,6.109375,59.206787109375,42,661.0,12.828125,280.220458984375,43,1387.0,35.0,1886.140625,38,3381.0,22.84375,863.71484375,36,2422.0,6.71875,67.953125,38,714.0,3.765625,21.788818359375,35,407.0,3
133,3.03125,15.83984375,24,277.0,4.703125,33.089599609375,30,424.0,6.640625,66.302490234375,38,658.0,14.71875,337.8349609375,38,1525.0,35.84375,2110.7646484375,37,3579.0,22.453125,810.011474609375,39,2247.0,7.328125,82.193115234375,35,712.0,3.9375,23.2099609375,33,388.0,3
134,2.78125,12.3125,27,270.0,4.015625,26.548583984375,29,395.0,6.390625,63.837646484375,35,612.0,13.59375,324.5380859375,35,1382.0,31.59375,1719.0625,43,3353.0,21.375,710.6708984375,40,2264.0,7.375,86.6318359375,41,756.0,3.859375,22.222412109375,33,364.0,3
135,3.125,14.3662109375,29,317.0,4.328125,31.933349609375,30,468.0,6.578125,69.689208984375,32,671.0,14.46875,384.24609375,36,1513.0,33.84375,1863.12109375,34,3195.0,19.828125,649.484130859375,42,2194.0,8.078125,98.909912109375,45,894.0,4.640625,32.745849609375,37,476.0,3
136,3.046875,13.777099609375,30,322.0,4.296875,30.134521484375,33,443.0,6.375,63.046875,34,651.0,13.921875,318.157958984375,37,1368.0,32.515625,1583.706787109375,30,2916.0,19.515625,643.972412109375,39,1912.0,8.140625,101.452880859375,38,873.0,5.0,36.0849609375,38,514.0,3
137,2.8125,12.203125,29,295.0,4.125,25.7099609375,37,415.0,6.609375,71.700927734375,39,700.0,13.234375,287.597412109375,39,1393.0,38.1875,2156.5,34,3645.0,20.828125,757.478271484375,34,1961.0,7.609375,100.003662109375,39,814.0,4.359375,28.638427734375,36,445.0,3
138,2.890625,12.339599609375,29,279.0,4.4375,27.6943359375,33,439.0,7.25,78.2021484375,38,733.0,16.9375,427.1875,41,1781.0,50.515625,3450.747802734375,41,5348.0,22.421875,863.997802734375,31,2174.0,7.765625,100.380615234375,37,806.0,4.046875,24.941162109375,35,404.0,3
139,3.109375,14.034912109375,31,313.0,4.4375,28.96484375,33,463.0,6.578125,65.642333984375,35,668.0,16.203125,414.863037109375,40,1748.0,45.890625,3122.218505859375,41,5011.0,23.125,814.37109375,33,2238.0,8.328125,110.197021484375,37,891.0,4.015625,25.171630859375,32,421.0,3
140,2.96875,13.4052734375,26,300.0,4.15625,28.65625,32,462.0,5.90625,57.1875,35,654.0,13.28125,290.5068359375,41,1512.0,37.71875,2374.99609375,37,4020.0,25.40625,930.5771484375,37,2608.0,8.78125,114.2568359375,39,925.0,3.828125,24.265380859375,30,413.0,3
141,2.4375,9.328125,28,236.0,3.765625,23.417724609375,34,397.0,5.4375,49.37109375,31,570.0,11.90625,229.5615234375,35,1250.0,36.71875,2173.05859375,33,3678.0,21.40625,729.05859375,37,2134.0,7.375,78.43359375,33,727.0,3.328125,17.614990234375,28,337.0,3
142,2.265625,8.183349609375,24,204.0,3.5625,19.9990234375,32,311.0,5.140625,43.794677734375,28,461.0,11.25,211.6396484375,33,1018.0,37.59375,2138.74609375,33,3523.0,17.0,417.8427734375,32,1471.0,6.328125,67.517333984375,32,599.0,3.015625,16.034912109375,23,277.0,3
143,2.3125,8.9912109375,18,229.0,3.546875,20.068115234375,31,338.0,5.203125,41.644287109375,34,523.0,11.828125,206.900146484375,40,1197.0,36.328125,2072.642333984375,41,3708.0,19.75,562.33984375,31,1752.0,7.25,90.7802734375,37,761.0,3.453125,22.007568359375,28,363.0,3
144,2.484375,9.980224609375,27,267.0,4.0,27.21875,31,428.0,5.796875,58.064208984375,32,605.0,13.265625,295.697021484375,39,1392.0,38.703125,2304.208740234375,40,3831.0,26.359375,1118.357177734375,36,2446.0,7.84375,101.0302734375,36,819.0,3.859375,25.372802734375,33,430.0,3
145,2.4375,9.0,36,264.0,4.171875,28.447021484375,35,450.0,6.3125,68.140625,37,650.0,12.640625,269.829833984375,39,1282.0,40.296875,2369.320068359375,34,3923.0,32.578125,1576.097412109375,35,2952.0,7.28125,88.765625,35,725.0,3.59375,20.65625,36,395.0,3
146,2.5,9.77734375,35,268.0,3.734375,22.079833984375,36,402.0,6.078125,61.876708984375,39,662.0,12.3125,255.49609375,39,1329.0,40.828125,2384.587646484375,32,3900.0,32.53125,1489.0068359375,33,3060.0,6.765625,80.165771484375,32,662.0,3.203125,16.001708984375,34,342.0,3
147,2.828125,14.163818359375,29,273.0,3.96875,28.7490234375,28,376.0,6.109375,67.782958984375,30,601.0,13.1875,312.6240234375,33,1328.0,38.046875,2128.038818359375,35,3650.0,30.109375,1466.007568359375,36,3201.0,8.140625,140.804443359375,30,876.0,3.84375,29.9677734375,27,391.0,3
148,2.78125,13.625,22,239.0,4.1875,30.4677734375,26,373.0,6.296875,65.593505859375,26,558.0,12.375,263.734375,25,1146.0,36.71875,2074.140625,35,3301.0,25.234375,1125.589599609375,34,2619.0,7.9375,130.9287109375,26,800.0,4.0,31.4130859375,21,376.0,3
149,2.984375,13.652099609375,25,264.0,4.390625,31.915771484375,26,423.0,6.703125,66.312255859375,31,608.0,12.953125,290.493896484375,29,1275.0,43.984375,2755.251708984375,35,4134.0,21.625,705.2568359375,30,1868.0,7.59375,88.1552734375,30,666.0,4.109375,27.745849609375,25,376.0,3
150,3.03125,13.9912109375,30,302.0,4.28125,30.3427734375,32,449.0,6.890625,69.652099609375,40,699.0,13.859375,304.075927734375,39,1426.0,41.328125,2340.909912109375,37,4087.0,21.546875,740.034912109375,32,1949.0,7.9375,95.2099609375,36,748.0,4.375,30.2724609375,35,448.0,3
151,3.359375,17.546630859375,28,340.0,4.703125,37.171630859375,36,502.0,7.5625,90.578125,42,806.0,15.34375,373.28125,36,1614.0,39.609375,2306.001708984375,44,4158.0,25.8125,1203.8505859375,34,2592.0,8.359375,108.531005859375,37,879.0,4.703125,32.825927734375,38,480.0,3
152,3.375,18.296875,29,330.0,5.03125,43.765625,34,516.0,7.609375,102.482177734375,37,797.0,15.25,414.6083984375,35,1608.0,37.375,2209.984375,39,3777.0,26.34375,1261.578125,32,2671.0,8.703125,119.550537109375,31,875.0,4.6875,33.234375,30,426.0,3
153,2.59375,11.4443359375,26,252.0,3.90625,26.8125,33,392.0,5.890625,65.902099609375,34,609.0,11.6875,250.9443359375,35,1196.0,32.625,1656.6787109375,37,3238.0,18.59375,652.1474609375,32,1736.0,6.28125,69.1630859375,27,595.0,3.46875,20.27734375,26,321.0,3
154,3.03125,15.80859375,28,311.0,3.90625,26.34375,31,425.0,5.671875,56.800537109375,33,608.0,10.59375,177.7568359375,34,1073.0,33.0625,1731.12109375,37,3297.0,19.0,715.6787109375,38,1866.0,6.5625,78.3974609375,35,675.0,3.890625,26.302490234375,29,407.0,3
155,3.34375,16.609375,31,334.0,4.1875,30.12109375,31,469.0,5.984375,62.466552734375,31,642.0,12.0,232.4521484375,32,1245.0,29.546875,1513.105224609375,32,2973.0,25.625,1116.3662109375,41,2614.0,7.5625,102.1552734375,36,803.0,4.25,29.49609375,31,442.0,3
156,2.546875,9.128662109375,27,233.0,3.390625,19.788818359375,28,359.0,4.703125,38.386474609375,27,465.0,9.671875,161.200927734375,34,996.0,26.3125,1298.109375,34,2779.0,20.515625,727.333740234375,34,2110.0,5.828125,62.333740234375,33,655.0,3.265625,17.259521484375,28,332.0,3
157,2.6875,11.5224609375,24,249.0,3.484375,19.847412109375,23,321.0,4.96875,43.5625,30,479.0,10.15625,180.08984375,39,1049.0,35.03125,2166.8896484375,37,3585.0,18.8125,666.4375,35,1946.0,6.609375,79.593505859375,34,695.0,3.609375,20.853271484375,24,344.0,3
158,2.84375,12.828125,23,265.0,3.53125,21.0458984375,26,329.0,5.640625,55.669677734375,32,556.0,11.0625,206.46484375,42,1172.0,34.625,2063.4208984375,35,3474.0,23.515625,858.550537109375,37,2338.0,7.15625,91.21484375,28,651.0,3.703125,21.898193359375,23,331.0,3
159,2.859375,14.277099609375,27,291.0,3.65625,26.359375,28,382.0,5.828125,65.261474609375,31,609.0,10.359375,185.706787109375,39,1123.0,31.640625,1716.585693359375,34,3269.0,21.40625,651.18359375,29,1915.0,6.6875,83.65625,26,628.0,3.578125,24.226318359375,26,364.0,3
160,3.03125,14.921875,31,299.0,4.3125,31.21875,31,428.0,6.515625,70.445068359375,32,659.0,11.546875,213.632568359375,37,1191.0,38.328125,2343.800537109375,40,4181.0,19.03125,564.7958984375,28,1698.0,7.15625,90.4130859375,31,682.0,4.0625,28.80859375,30,405.0,3
161,2.5625,9.0458984375,34,253.0,3.6875,19.296875,36,358.0,5.734375,45.648193359375,34,570.0,10.546875,163.683349609375,36,1050.0,40.828125,2592.624755859375,42,4612.0,18.140625,546.976318359375,33,1797.0,6.90625,69.83984375,36,677.0,3.703125,20.433349609375,35,364.0,3
162,2.046875,5.616943359375,30,195.0,2.859375,10.767333984375,30,256.0,4.640625,30.773193359375,35,469.0,9.71875,133.8974609375,40,998.0,39.140625,2396.952880859375,44,4392.0,21.875,796.02734375,38,2274.0,5.953125,50.886474609375,35,579.0,3.125,14.078125,33,298.0,3
163,2.03125,6.4208984375,23,182.0,2.875,12.40234375,31,278.0,4.5625,31.0380859375,37,467.0,9.890625,148.202880859375,40,1045.0,35.1875,1857.5849609375,43,3656.0,24.65625,938.296875,39,2541.0,5.59375,50.24609375,28,524.0,3.015625,14.109130859375,25,281.0,3
164,2.375,8.546875,20,216.0,3.21875,15.6865234375,34,338.0,4.765625,34.152099609375,36,503.0,9.578125,154.454833984375,35,1028.0,39.171875,2228.560302734375,39,4044.0,26.28125,957.3115234375,37,2599.0,5.953125,56.493896484375,28,594.0,3.296875,16.540771484375,29,334.0,3
165,2.15625,7.6083984375,25,218.0,3.0625,14.7177734375,36,333.0,4.671875,36.329833984375,36,518.0,9.78125,163.02734375,36,1018.0,37.921875,2212.099365234375,33,3860.0,23.4375,788.390625,29,2237.0,5.8125,56.78125,33,611.0,3.078125,15.788818359375,32,337.0,3
166,1.984375,6.116943359375,28,198.0,2.828125,12.691162109375,33,288.0,4.65625,36.7412109375,34,508.0,9.65625,153.859375,36,959.0,30.953125,1573.831787109375,32,3144.0,19.359375,604.882568359375,27,1874.0,6.03125,60.703125,30,590.0,2.875,14.3271484375,25,305.0,3
167,1.953125,5.441162109375,30,188.0,2.640625,10.566162109375,33,254.0,4.328125,30.919677734375,31,455.0,8.421875,112.536865234375,31,782.0,26.03125,1115.1474609375,29,2503.0,21.296875,699.907958984375,32,2108.0,5.28125,46.68359375,29,511.0,2.734375,11.034912109375,24,250.0,3
168,2.171875,6.513427734375,31,218.0,2.953125,12.765380859375,36,302.0,4.546875,30.634521484375,36,468.0,9.765625,142.880615234375,35,996.0,30.390625,1585.300537109375,34,3114.0,23.8125,907.02734375,34,2512.0,5.8125,59.87109375,29,596.0,3.03125,12.9990234375,26,281.0,3
169,2.390625,7.577880859375,33,252.0,3.203125,13.370849609375,34,332.0,4.453125,27.734130859375,38,476.0,9.453125,136.796630859375,44,1038.0,31.65625,1751.0927734375,36,3233.0,23.3125,857.27734375,35,2415.0,7.03125,75.0537109375,40,729.0,3.28125,15.1875,34,334.0,3
170,2.5,10.015625,36,291.0,3.5,18.5068359375,34,366.0,5.015625,41.064208984375,35,554.0,8.796875,127.743896484375,44,1000.0,29.5625,1359.9052734375,30,2644.0,21.765625,781.648193359375,31,2099.0,7.171875,77.452880859375,41,728.0,3.390625,17.716552734375,43,382.0,3
171,2.515625,10.400146484375,33,265.0,3.609375,20.249755859375,36,361.0,5.5625,48.0615234375,35,571.0,10.140625,159.361083984375,41,1062.0,35.96875,1781.1552734375,32,3158.0,22.265625,835.146240234375,28,1954.0,7.328125,84.070068359375,35,703.0,3.5,19.37109375,38,382.0,3
172,2.625,11.109375,24,246.0,3.6875,18.74609375,32,316.0,5.4375,43.99609375,30,494.0,10.59375,166.21484375,36,978.0,39.375,2179.90234375,35,3736.0,22.9375,863.2958984375,29,2015.0,8.515625,109.591552734375,34,791.0,4.0,28.671875,28,371.0,3
173,2.71875,11.40625,23,265.0,4.015625,25.626708984375,28,365.0,4.875,36.21484375,33,462.0,9.359375,138.972412109375,34,879.0,34.40625,1975.2021484375,35,3452.0,20.84375,746.40234375,28,1936.0,7.140625,83.796630859375,35,642.0,6.921875,106.741943359375,29,768.0,3
174,2.609375,9.523193359375,26,246.0,3.5,21.46875,26,329.0,3.484375,18.489990234375,32,330.0,7.171875,82.948974609375,35,694.0,26.828125,1386.505615234375,35,2805.0,17.5,551.5380859375,35,1676.0,4.96875,38.80859375,44,519.0,9.25,170.4375,38,1060.0,4
175,2.59375,10.3037109375,31,255.0,2.6875,10.43359375,22,237.0,3.03125,15.3662109375,28,290.0,6.625,82.0625,37,687.0,28.5625,1429.0625,39,3034.0,18.546875,686.956787109375,41,1899.0,5.84375,59.40625,44,666.0,9.078125,147.921630859375,40,1007.0,4
176,2.359375,8.669677734375,27,223.0,2.0,5.6552734375,23,176.0,2.65625,11.5927734375,24,274.0,6.171875,77.087646484375,36,687.0,28.421875,1338.773193359375,39,3005.0,21.96875,858.1865234375,40,2389.0,5.609375,53.148193359375,39,632.0,7.109375,91.728271484375,33,762.0,4
177,2.625,11.05859375,21,232.0,2.140625,7.114990234375,22,189.0,2.5625,11.125,19,240.0,6.0625,63.3896484375,29,582.0,24.546875,994.906005859375,36,2515.0,22.859375,854.499755859375,39,2380.0,4.984375,40.251708984375,38,512.0,6.625,83.3115234375,31,683.0,4
178,6.265625,76.023193359375,27,575.0,2.640625,10.661865234375,25,253.0,3.515625,20.284912109375,28,357.0,8.171875,127.878662109375,29,757.0,29.703125,1426.724365234375,34,2821.0,24.5625,943.4443359375,39,2497.0,6.484375,79.136474609375,38,684.0,8.140625,116.107177734375,32,800.0,4
179,7.875,104.77734375,32,766.0,2.3125,7.9912109375,30,233.0,3.375,18.71875,30,375.0,7.46875,123.12109375,29,778.0,28.8125,1375.2177734375,31,2786.0,23.953125,864.907958984375,41,2474.0,5.765625,69.972412109375,32,640.0,8.0625,109.3505859375,35,803.0,4
180,5.109375,48.302490234375,34,488.0,1.921875,4.452880859375,28,167.0,2.3125,9.0615234375,20,247.0,5.296875,53.396240234375,27,534.0,23.171875,907.113037109375,35,2283.0,17.078125,469.222412109375,36,1644.0,3.859375,25.736083984375,34,408.0,6.9375,91.80859375,39,757.0,4
181,3.875,30.21875,34,390.0,2.015625,4.659912109375,23,154.0,2.359375,9.040771484375,18,221.0,5.4375,46.5927734375,28,497.0,24.8125,1077.6630859375,36,2579.0,15.96875,406.24609375,38,1606.0,4.03125,24.18359375,36,396.0,5.296875,57.763427734375,36,574.0,4
182,2.75,21.0771484375,25,286.0,1.828125,4.138427734375,23,147.0,2.5625,10.328125,25,230.0,5.46875,48.5849609375,31,509.0,26.46875,1093.71484375,38,2878.0,20.46875,630.77734375,44,2153.0,3.890625,22.976318359375,31,393.0,5.265625,51.339599609375,35,536.0,4
183,1.890625,6.988037109375,23,199.0,1.71875,3.96484375,20,153.0,2.609375,10.370849609375,29,250.0,5.234375,46.081787109375,36,546.0,24.53125,912.375,37,2562.0,21.734375,714.855224609375,38,2260.0,3.96875,24.7490234375,29,397.0,5.6875,57.55859375,34,575.0,4
184,1.875,5.8271484375,27,189.0,1.671875,3.609130859375,16,151.0,2.234375,7.169677734375,22,208.0,4.296875,29.136474609375,33,437.0,25.71875,1348.7255859375,36,2790.0,20.4375,648.6787109375,38,2167.0,3.171875,17.609130859375,28,317.0,5.125,43.1865234375,34,531.0,4
185,1.796875,5.484130859375,21,163.0,1.6875,3.7490234375,22,155.0,2.125,7.8662109375,20,190.0,4.578125,39.134521484375,30,471.0,28.78125,1554.77734375,44,3186.0,18.796875,614.380615234375,42,1997.0,3.34375,21.40234375,33,341.0,4.453125,35.009521484375,32,447.0,4
186,1.828125,6.691162109375,24,174.0,1.671875,4.273193359375,24,165.0,2.28125,9.46484375,23,218.0,4.4375,40.328125,32,464.0,22.3125,847.828125,43,2495.0,17.375,556.49609375,42,1795.0,3.484375,21.554443359375,30,354.0,4.046875,31.972412109375,34,416.0,4
187,1.75,5.3505859375,27,170.0,1.609375,3.689208984375,23,156.0,2.34375,8.0380859375,26,229.0,3.875,25.265625,36,404.0,21.640625,794.546630859375,42,2483.0,18.375,517.953125,40,1908.0,3.375,17.83984375,27,328.0,3.90625,28.8974609375,35,421.0,4
188,1.609375,3.866943359375,21,152.0,1.734375,4.005615234375,29,162.0,2.484375,9.241943359375,36,258.0,4.875,36.9287109375,41,529.0,25.84375,1040.2255859375,44,2870.0,18.28125,555.4755859375,36,1880.0,4.453125,31.652099609375,35,457.0,3.8125,26.74609375,33,420.0,4
189,1.609375,3.913818359375,18,150.0,1.859375,5.259521484375,28,183.0,2.390625,9.579833984375,36,256.0,5.765625,51.443115234375,38,615.0,29.765625,1621.546630859375,44,3425.0,16.46875,467.6318359375,39,1780.0,4.34375,34.4365234375,30,446.0,4.734375,49.804443359375,35,541.0,4
190,1.78125,4.515625,20,151.0,2.015625,5.978271484375,21,196.0,2.578125,10.638427734375,30,265.0,5.625,49.4755859375,35,583.0,26.6875,1381.24609375,38,2908.0,15.515625,386.593505859375,40,1681.0,3.609375,25.669677734375,27,357.0,4.3125,40.5302734375,31,445.0,4
191,1.75,4.859375,23,168.0,1.828125,4.700927734375,22,182.0,2.4375,9.49609375,27,260.0,4.8125,36.1240234375,33,523.0,22.046875,709.197021484375,35,2345.0,14.359375,372.011474609375,37,1540.0,3.34375,17.7724609375,33,337.0,3.421875,21.380615234375,36,360.0,4
192,1.703125,6.607177734375,19,178.0,1.859375,4.507568359375,15,146.0,2.25,7.9677734375,13,191.0,4.484375,32.874755859375,30,435.0,24.078125,939.101318359375,38,2675.0,15.53125,400.6162109375,38,1629.0,3.25,14.8505859375,30,296.0,4.09375,41.52734375,38,445.0,4
193,1.671875,5.640380859375,21,163.0,1.6875,4.15234375,13,134.0,2.25,7.9677734375,23,204.0,4.65625,34.4208984375,38,462.0,24.53125,1017.4052734375,38,2656.0,17.359375,445.458740234375,42,1906.0,3.03125,15.08984375,32,292.0,3.734375,38.665771484375,32,398.0,4
194,1.65625,3.80859375,27,153.0,1.234375,2.220458984375,13,102.0,1.84375,5.1240234375,22,167.0,4.234375,26.843505859375,34,394.0,24.28125,917.0458984375,38,2565.0,16.921875,465.948974609375,38,1774.0,2.75,12.30859375,35,286.0,3.65625,31.7021484375,32,404.0,4
195,1.5,3.59375,19,136.0,1.265625,2.398193359375,15,98.0,1.765625,4.827880859375,14,147.0,4.078125,29.995849609375,33,383.0,24.015625,893.991943359375,34,2471.0,16.296875,461.060302734375,37,1680.0,2.6875,13.52734375,24,277.0,3.140625,23.601318359375,29,317.0,4
196,1.5,2.9130859375,21,124.0,1.375,2.8193359375,17,120.0,2.234375,8.197021484375,22,217.0,4.921875,44.765380859375,38,506.0,25.59375,1037.53125,35,2625.0,14.796875,368.450927734375,41,1637.0,2.671875,14.656005859375,19,275.0,1.703125,3.954833984375,17,142.0,4
197,1.765625,4.298583984375,25,148.0,1.8125,9.43359375,15,168.0,2.390625,8.111083984375,26,226.0,4.734375,36.556396484375,28,435.0,24.375,912.2333984375,37,2518.0,14.140625,329.339599609375,43,1510.0,2.609375,12.359130859375,25,276.0,2.03125,6.2490234375,18,183.0,4
198,1.625,4.0771484375,24,155.0,2.8125,17.52734375,25,284.0,2.125,5.68359375,23,188.0,3.875,19.78125,18,312.0,21.734375,684.386474609375,32,2090.0,14.3125,314.7568359375,41,1474.0,2.71875,10.78125,31,283.0,2.15625,6.87109375,23,200.0,4
199,1.640625,4.114990234375,29,161.0,2.65625,11.796875,30,260.0,2.15625,6.5458984375,24,182.0,4.453125,34.177490234375,25,396.0,20.03125,630.7646484375,35,2098.0,16.28125,428.8662109375,38,1662.0,3.21875,18.4912109375,32,352.0,1.796875,5.103271484375,25,176.0,4
200,1.4375,3.4208984375,18,134.0,1.46875,3.40234375,18,136.0,2.03125,6.21484375,25,175.0,4.328125,35.519287109375,33,465.0,17.578125,533.818115234375,40,1997.0,16.171875,421.079833984375,38,1699.0,2.796875,16.519287109375,25,284.0,1.359375,3.900146484375,20,149.0,4
201,1.234375,2.079833984375,11,101.0,1.4375,3.2255859375,13,128.0,1.828125,5.095458984375,23,171.0,3.90625,28.2255859375,33,424.0,18.125,536.5224609375,35,1937.0,13.875,312.84375,37,1468.0,2.421875,9.749755859375,30,236.0,1.171875,2.833740234375,14,123.0,4
202,1.390625,2.554443359375,19,121.0,1.53125,3.58984375,12,137.0,1.921875,5.234130859375,25,187.0,3.640625,25.677490234375,29,386.0,17.21875,462.09375,36,1744.0,17.0625,493.52734375,41,1889.0,2.703125,11.695068359375,34,291.0,1.375,3.1162109375,22,143.0,4
203,1.203125,1.907958984375,18,102.0,1.34375,2.3818359375,11,100.0,1.953125,4.503662109375,22,164.0,3.4375,21.7099609375,23,342.0,19.78125,639.5615234375,40,2024.0,17.3125,500.8583984375,40,1894.0,2.6875,10.75,31,273.0,1.40625,2.74609375,19,129.0,4
204,1.03125,1.4208984375,13,89.0,1.359375,2.224365234375,15,105.0,1.734375,3.609130859375,20,144.0,3.671875,22.868896484375,29,383.0,24.140625,1013.907958984375,44,2595.0,16.109375,439.021240234375,36,1681.0,2.734375,10.663818359375,31,264.0,1.46875,2.8271484375,21,134.0,4
205,1.046875,1.536865234375,10,100.0,1.453125,3.472412109375,13,142.0,1.71875,5.3349609375,20,173.0,4.265625,30.097412109375,36,463.0,23.125,968.2568359375,40,2536.0,18.34375,538.765625,39,1948.0,2.765625,10.638427734375,33,275.0,1.53125,3.4677734375,16,137.0,4
206,1.375,2.7880859375,17,137.0,1.734375,4.665771484375,14,149.0,2.1875,8.83984375,21,224.0,5.3125,44.08984375,34,522.0,26.296875,1208.925537109375,39,2758.0,15.171875,400.489990234375,35,1534.0,2.84375,13.96484375,30,291.0,1.84375,5.27734375,19,167.0,4
207,1.5625,3.1943359375,23,147.0,1.515625,3.745849609375,16,138.0,2.359375,8.880615234375,25,227.0,4.90625,37.2099609375,33,476.0,23.671875,1034.443115234375,39,2507.0,13.015625,292.644287109375,32,1333.0,2.921875,14.993896484375,34,305.0,1.8125,5.21484375,26,177.0,4
208,1.25,2.2568359375,18,118.0,1.34375,2.71875,20,136.0,2.078125,6.402099609375,24,196.0,4.578125,30.269287109375,35,444.0,16.25,504.4130859375,33,1692.0,16.515625,486.484130859375,39,1842.0,2.953125,14.712646484375,35,301.0,1.484375,3.224365234375,20,137.0,4
209,1.046875,1.775146484375,13,103.0,1.359375,2.013427734375,18,116.0,1.765625,3.972412109375,21,159.0,4.03125,24.6865234375,33,382.0,19.3125,700.90625,40,1997.0,17.296875,557.232177734375,38,2024.0,2.796875,13.566162109375,30,281.0,1.375,2.33984375,18,116.0,4
210,1.21875,1.8037109375,12,103.0,1.578125,2.599365234375,8,116.0,2.0,6.0849609375,22,197.0,4.09375,30.68359375,31,406.0,20.359375,741.488037109375,42,2170.0,16.5,441.546875,36,1753.0,2.859375,12.327880859375,31,300.0,1.640625,3.253662109375,16,124.0,4
211,1.296875,2.027099609375,17,110.0,1.59375,2.875,23,129.0,2.21875,7.49609375,25,215.0,5.296875,46.919677734375,36,513.0,22.09375,932.125,36,2322.0,18.015625,514.632568359375,39,1851.0,3.125,13.8974609375,36,328.0,1.671875,3.954833984375,14,135.0,4
212,1.28125,2.046875,17,114.0,1.359375,1.964599609375,23,112.0,1.9375,5.12109375,26,175.0,4.4375,31.8505859375,31,439.0,26.078125,1142.306396484375,39,2891.0,15.828125,429.802490234375,35,1626.0,2.75,10.9208984375,30,275.0,1.546875,3.464599609375,17,140.0,4
213,1.328125,2.191162109375,18,123.0,1.65625,3.0927734375,24,133.0,1.953125,5.015380859375,29,180.0,3.515625,23.726318359375,27,333.0,21.4375,783.2099609375,37,2211.0,13.484375,297.906005859375,31,1395.0,2.5,9.40625,27,245.0,1.6875,3.7802734375,21,158.0,4
214,1.171875,1.898193359375,13,107.0,1.578125,2.952880859375,19,123.0,2.03125,5.1552734375,26,171.0,3.703125,25.941162109375,27,338.0,19.0625,653.71484375,33,1877.0,12.65625,285.453125,33,1332.0,2.578125,9.741943359375,30,256.0,1.4375,3.0146484375,18,142.0,4
215,1.15625,1.62109375,14,96.0,1.34375,2.484375,10,117.0,2.0625,5.6005859375,27,182.0,3.625,20.8349609375,30,331.0,20.640625,741.105224609375,36,2123.0,12.734375,264.802490234375,37,1325.0,2.625,10.3740234375,35,276.0,1.203125,2.001708984375,19,116.0,4
216,1.171875,1.648193359375,18,97.0,1.375,2.4365234375,13,119.0,1.78125,4.328125,21,156.0,2.53125,12.9677734375,25,243.0,12.421875,404.800537109375,28,1326.0,8.75,169.109375,31,915.0,1.953125,6.497802734375,26,201.0,1.109375,1.454833984375,11,89.0,4
217,1.015625,1.286865234375,10,80.0,1.21875,1.46484375,13,88.0,1.34375,2.09375,8,91.0,1.21875,2.1396484375,8,90.0,2.75,44.1474609375,15,203.0,2.140625,10.902099609375,18,198.0,1.171875,1.486083984375,10,85.0,1.109375,1.103271484375,7,69.0,4
218,1.0625,1.140625,5,69.0,1.171875,1.267333984375,10,70.0,1.15625,1.15234375,2,58.0,1.171875,1.294677734375,7,73.0,1.25,1.7255859375,12,90.0,1.625,3.6552734375,13,128.0,0.984375,1.017333984375,6,61.0,1.203125,1.284912109375,12,86.0,5
219,1.078125,1.204833984375,7,76.0,1.3125,1.5927734375,5,72.0,1.109375,0.794677734375,3,57.0,1.171875,1.259521484375,10,68.0,1.09375,1.140625,7,72.0,1.5625,3.5625,12,122.0,1.0,0.953125,5,70.0,1.09375,1.0693359375,10,78.0,5
220,0.953125,0.882568359375,9,72.0,1.28125,1.40234375,5,79.0,1.265625,1.284912109375,6,78.0,0.96875,0.8583984375,7,61.0,1.171875,0.919677734375,5,55.0,1.34375,2.1630859375,13,100.0,1.203125,1.169677734375,10,84.0,1.046875,1.036865234375,11,74.0,5
221,1.015625,0.878662109375,5,68.0,1.28125,1.234375,7,78.0,1.265625,1.165771484375,8,74.0,0.890625,0.835693359375,3,64.0,1.109375,0.888427734375,7,64.0,1.296875,2.142333984375,12,99.0,1.09375,1.015625,10,73.0,1.109375,1.236083984375,10,77.0,5
222,1.03125,0.78125,1,62.0,1.328125,1.544677734375,13,90.0,1.125,0.9599609375,8,60.0,0.9375,0.859375,3,62.0,1.0625,1.1318359375,9,74.0,1.1875,1.7646484375,15,99.0,1.125,1.1630859375,9,65.0,0.984375,0.902099609375,3,61.0,5
223,0.875,0.7646484375,4,58.0,1.265625,1.359130859375,12,83.0,1.203125,1.384521484375,9,81.0,0.953125,0.902099609375,6,64.0,1.234375,1.484130859375,10,82.0,1.390625,3.415771484375,15,121.0,1.171875,1.443115234375,8,68.0,0.90625,0.8193359375,1,55.0,5
224,0.90625,1.171875,8,68.0,1.1875,1.08984375,11,71.0,1.1875,1.4990234375,8,90.0,1.015625,1.089599609375,8,68.0,1.171875,1.234130859375,7,71.0,1.78125,5.37109375,15,159.0,1.046875,1.241943359375,7,70.0,1.015625,0.972412109375,5,60.0,5
225,0.9375,1.0146484375,6,63.0,1.265625,1.134521484375,8,68.0,1.09375,1.1865234375,5,73.0,1.125,1.234375,12,88.0,1.03125,0.7802734375,4,59.0,1.734375,3.972412109375,19,140.0,1.046875,1.288818359375,11,81.0,1.015625,0.950927734375,3,71.0,5
226,0.984375,0.665771484375,4,60.0,1.21875,1.1162109375,5,74.0,1.140625,0.909912109375,1,62.0,1.0,1.1083984375,8,83.0,1.015625,0.759521484375,5,64.0,1.34375,1.9365234375,10,95.0,1.0,1.1396484375,12,78.0,0.921875,0.847412109375,1,62.0,5
227,0.921875,0.683349609375,4,56.0,1.09375,1.1474609375,7,78.0,1.09375,0.9677734375,5,62.0,0.9375,1.0771484375,5,69.0,1.03125,0.80859375,3,62.0,1.421875,2.009521484375,12,102.0,0.921875,0.927490234375,8,61.0,0.921875,0.704833984375,4,53.0,5
228,0.921875,0.880615234375,6,70.0,1.1875,1.21484375,10,87.0,1.09375,1.078125,8,72.0,1.046875,1.079833984375,6,67.0,1.171875,0.941162109375,3,73.0,1.40625,1.93359375,14,106.0,0.921875,1.064208984375,5,65.0,0.96875,0.765625,5,57.0,5
229,1.046875,1.142333984375,8,86.0,1.15625,0.8115234375,6,70.0,1.203125,1.103271484375,5,72.0,1.21875,1.1240234375,8,73.0,1.296875,1.161865234375,6,86.0,1.234375,1.544677734375,9,85.0,0.921875,0.882568359375,5,65.0,1.0,0.9287109375,5,63.0,5
230,0.953125,1.101318359375,6,75.0,1.078125,0.765380859375,3,51.0,1.265625,1.103271484375,9,73.0,1.265625,1.232177734375,11,83.0,1.125,1.0615234375,6,78.0,1.28125,1.4677734375,8,84.0,0.96875,0.9833984375,4,63.0,0.890625,0.829833984375,3,64.0,5
231,0.953125,0.954833984375,3,61.0,1.09375,1.15234375,5,68.0,1.21875,1.08984375,10,69.0,1.390625,3.034912109375,14,117.0,1.1875,2.0380859375,10,100.0,1.34375,1.74609375,15,98.0,1.015625,1.130615234375,3,74.0,0.921875,0.659912109375,2,51.0,5
232,0.921875,0.683349609375,1,54.0,1.09375,1.0927734375,4,63.0,1.140625,1.228271484375,5,66.0,1.25,2.87109375,10,106.0,1.3125,2.30859375,16,105.0,1.296875,1.941162109375,14,99.0,0.921875,0.849365234375,2,68.0,1.046875,0.853271484375,7,63.0,5
233,0.90625,0.5380859375,2,51.0,0.96875,0.9130859375,6,64.0,1.03125,1.109375,6,70.0,0.96875,1.03125,5,65.0,1.125,1.2255859375,13,80.0,1.203125,1.450927734375,6,77.0,0.90625,0.77734375,4,64.0,0.90625,0.7958984375,6,61.0,5
234,1.03125,0.80859375,4,56.0,0.890625,0.866943359375,5,72.0,1.140625,1.077880859375,8,71.0,1.09375,1.2646484375,8,77.0,1.015625,0.909912109375,7,69.0,1.28125,1.59375,8,81.0,1.0625,1.015625,8,70.0,0.796875,0.775146484375,5,54.0,5
235,1.140625,1.075927734375,7,64.0,1.0625,0.953125,6,65.0,1.234375,1.165771484375,6,75.0,1.09375,1.2021484375,8,70.0,1.140625,0.759521484375,4,59.0,1.359375,1.816162109375,14,93.0,1.09375,0.9677734375,5,70.0,0.90625,0.9521484375,4,59.0,5
236,1.0625,1.21875,8,68.0,1.21875,1.0927734375,8,63.0,1.15625,1.0302734375,6,69.0,1.09375,1.18359375,11,63.0,1.203125,1.171630859375,8,71.0,1.78125,4.62109375,19,133.0,1.53125,4.3896484375,3,114.0,1.015625,1.058349609375,7,68.0,5
237,0.859375,0.988037109375,6,60.0,1.171875,1.044677734375,8,75.0,1.25,1.1240234375,6,65.0,1.078125,1.130615234375,7,64.0,1.1875,1.484375,11,88.0,1.703125,4.945068359375,17,138.0,1.625,4.8193359375,7,124.0,1.09375,1.2958984375,14,85.0,5
238,0.828125,0.677490234375,7,63.0,1.0,0.828125,5,62.0,1.25,1.33984375,10,76.0,1.109375,0.950927734375,6,61.0,1.140625,1.200927734375,6,80.0,1.21875,1.90234375,10,94.0,1.171875,1.447021484375,6,84.0,1.125,1.109375,11,77.0,5
239,0.921875,0.741943359375,9,69.0,0.984375,0.753662109375,2,55.0,1.21875,1.484375,12,86.0,1.15625,0.875,7,55.0,1.078125,0.857177734375,3,62.0,1.171875,1.353271484375,8,78.0,1.046875,1.072021484375,5,74.0,1.09375,0.7490234375,6,63.0,5
240,0.96875,0.96484375,7,70.0,1.046875,0.734130859375,3,58.0,1.1875,1.2490234375,8,78.0,1.078125,0.915771484375,6,62.0,1.0625,0.9287109375,5,64.0,1.21875,1.0849609375,5,70.0,1.09375,1.046875,6,74.0,0.953125,0.597412109375,4,53.0,5
241,0.90625,0.90234375,5,67.0,1.109375,0.825927734375,3,56.0,1.0625,0.953125,8,69.0,1.125,1.02734375,8,70.0,1.046875,1.103271484375,4,78.0,1.109375,0.890380859375,2,64.0,1.125,1.0537109375,7,76.0,0.953125,1.023193359375,5,64.0,5
242,0.90625,0.80859375,5,61.0,1.15625,1.2724609375,10,78.0,1.125,1.2412109375,13,80.0,1.171875,1.570068359375,10,84.0,1.015625,1.142333984375,3,69.0,1.0625,1.1943359375,7,77.0,1.03125,0.921875,4,70.0,1.078125,1.193115234375,11,74.0,5
243,1.0625,1.05859375,5,66.0,1.140625,1.191162109375,8,72.0,1.171875,1.138427734375,8,68.0,1.0,1.3818359375,6,78.0,0.984375,0.976318359375,4,60.0,1.1875,1.46484375,8,87.0,1.09375,0.9052734375,5,69.0,1.125,1.0302734375,8,68.0,5
244,0.9375,1.0625,6,69.0,1.046875,0.671630859375,1,49.0,1.109375,0.921630859375,4,59.0,1.015625,1.034912109375,4,64.0,1.109375,1.044677734375,5,73.0,1.140625,1.695068359375,10,93.0,1.09375,0.9599609375,10,73.0,1.0625,0.9677734375,5,60.0,5
245,0.875,1.171875,9,80.0,1.03125,0.953125,3,60.0,1.09375,1.2255859375,9,77.0,1.046875,0.972412109375,5,60.0,1.203125,1.388427734375,5,84.0,1.28125,2.3125,13,114.0,1.109375,1.134521484375,8,79.0,1.109375,1.013427734375,8,70.0,5
246,0.984375,1.345458984375,9,83.0,1.15625,1.27734375,6,70.0,1.109375,1.072021484375,6,69.0,0.9375,0.640625,3,51.0,1.171875,1.327880859375,6,84.0,1.171875,1.829833984375,10,99.0,1.09375,0.9365234375,2,69.0,1.09375,1.1240234375,6,78.0,5
247,1.15625,1.37109375,9,77.0,1.140625,1.140380859375,6,72.0,1.125,0.90625,3,58.0,1.015625,0.609130859375,2,51.0,1.015625,0.947021484375,3,61.0,1.125,1.6396484375,9,89.0,1.03125,0.7490234375,3,61.0,0.90625,0.8505859375,3,63.0,5
248,1.15625,1.359375,9,81.0,1.109375,1.009521484375,6,73.0,1.21875,1.28125,5,66.0,0.953125,0.722412109375,0,54.0,1.078125,0.984130859375,6,67.0,1.171875,1.568115234375,11,84.0,1.03125,0.77734375,4,58.0,0.90625,0.6943359375,3,52.0,5
249,0.875,1.0068359375,8,73.0,1.125,1.08984375,6,74.0,1.234375,1.066162109375,3,64.0,0.78125,0.65234375,1,54.0,1.078125,0.982177734375,8,82.0,1.171875,1.447021484375,11,84.0,1.0625,0.984375,8,69.0,0.984375,0.697021484375,2,51.0,5
250,0.9375,1.0,7,76.0,1.03125,1.109375,6,78.0,1.15625,0.8974609375,3,70.0,0.90625,0.7333984375,4,59.0,1.0,0.8349609375,5,73.0,1.203125,1.452880859375,9,87.0,1.0625,1.1875,16,87.0,1.0625,0.8974609375,5,66.0,5
251,1.078125,1.204833984375,8,84.0,1.015625,0.995849609375,5,77.0,1.1875,1.0224609375,5,60.0,1.109375,0.950927734375,8,69.0,1.046875,0.857177734375,3,68.0,1.15625,1.2724609375,10,82.0,1.015625,0.991943359375,13,77.0,0.96875,0.93359375,5,66.0,5
252,1.0,0.96484375,6,75.0,1.09375,1.0927734375,3,72.0,1.140625,1.077880859375,7,69.0,1.078125,1.193115234375,14,82.0,1.109375,0.952880859375,2,69.0,1.203125,1.234130859375,7,76.0,1.03125,0.8818359375,8,66.0,0.859375,0.757568359375,3,53.0,5
253,0.921875,0.777099609375,3,65.0,1.109375,1.294677734375,2,71.0,1.0625,1.0537109375,8,78.0,1.03125,1.1630859375,19,84.0,1.15625,1.0,6,66.0,1.25,1.12109375,9,72.0,0.90625,0.74609375,4,62.0,0.921875,0.829833984375,2,55.0,5
254,1.046875,0.888427734375,4,58.0,1.109375,1.134521484375,2,66.0,1.109375,0.859130859375,4,57.0,0.984375,0.798583984375,9,64.0,1.109375,0.972412109375,8,66.0,1.34375,1.52734375,14,89.0,0.828125,0.788818359375,2,59.0,0.90625,0.890625,1,61.0,5
255,1.171875,1.169677734375,8,72.0,1.125,1.21875,6,73.0,1.21875,1.1552734375,10,74.0,0.90625,0.77734375,3,65.0,1.15625,1.03125,6,71.0,1.1875,1.43359375,9,85.0,0.9375,0.9375,6,64.0,0.875,0.7958984375,4,62.0,5
256,1.0625,1.0068359375,8,68.0,1.234375,1.327880859375,10,79.0,1.234375,1.046630859375,10,69.0,0.90625,0.93359375,7,76.0,1.078125,0.890380859375,3,66.0,1.140625,1.138427734375,8,75.0,0.953125,0.755615234375,6,60.0,0.953125,0.866943359375,9,72.0,5
257,0.953125,0.704833984375,5,54.0,1.359375,0.986083984375,11,71.0,1.125,0.8037109375,2,59.0,1.015625,0.986083984375,5,68.0,1.171875,1.169677734375,6,75.0,1.15625,1.15234375,8,72.0,1.046875,0.888427734375,2,63.0,0.890625,0.741943359375,6,66.0,5
258,1.078125,1.072021484375,5,69.0,1.1875,0.9677734375,10,72.0,1.265625,1.380615234375,3,82.0,0.984375,0.892333984375,6,59.0,1.234375,1.294677734375,7,77.0,1.25,1.52734375,9,84.0,1.046875,1.044677734375,4,76.0,0.96875,0.6552734375,0,58.0,5
259,1.078125,1.152099609375,6,74.0,1.046875,0.933349609375,12,75.0,1.234375,1.267333984375,3,74.0,0.921875,0.945068359375,7,68.0,1.0,1.05859375,5,68.0,1.21875,1.6875,17,90.0,0.953125,0.933349609375,5,73.0,1.09375,0.875,5,68.0,5
260,7.890625,258.025146484375,17,760.0,2.203125,10.769287109375,20,213.0,2.125,8.2802734375,12,172.0,3.359375,31.042724609375,18,320.0,6.53125,174.2255859375,11,583.0,4.40625,62.71484375,22,429.0,2.1875,15.8583984375,14,218.0,5.296875,114.777099609375,17,467.0,5
261,16.28125,528.52734375,31,1585.0,3.84375,25.74609375,25,379.0,3.40625,17.21484375,22,312.0,6.015625,66.997802734375,32,612.0,12.484375,319.806396484375,25,1221.0,9.078125,164.919677734375,32,943.0,5.15625,54.5302734375,32,553.0,11.734375,274.952880859375,28,1146.0,5
262,16.359375,437.624755859375,33,1539.0,4.046875,28.277099609375,26,398.0,3.625,18.1396484375,29,349.0,6.296875,66.847412109375,35,650.0,11.859375,254.245849609375,31,1238.0,10.828125,212.519287109375,43,1218.0,6.078125,58.628662109375,36,637.0,14.421875,326.853271484375,31,1343.0,6
263,14.0,351.8583984375,35,1438.0,4.609375,37.072021484375,36,500.0,3.59375,16.7490234375,34,347.0,6.78125,86.15234375,33,723.0,13.953125,387.945068359375,38,1467.0,11.3125,209.46484375,43,1199.0,4.53125,32.27734375,31,468.0,11.8125,249.8740234375,35,1158.0,6
264,11.203125,251.267333984375,33,1117.0,4.953125,37.441162109375,41,547.0,3.390625,17.421630859375,28,312.0,7.453125,110.863037109375,34,853.0,12.21875,332.71875,44,1342.0,12.015625,230.677490234375,40,1257.0,3.9375,25.21484375,25,362.0,8.765625,148.870849609375,37,885.0,6
265,8.125,101.8974609375,33,720.0,3.5625,18.40625,36,386.0,2.84375,12.53125,27,263.0,6.21875,75.55859375,35,688.0,6.375,72.3037109375,31,644.0,12.609375,300.831787109375,37,1392.0,3.890625,23.538818359375,33,357.0,6.84375,85.296875,33,605.0,6
266,8.28125,109.1005859375,34,807.0,3.234375,14.697021484375,34,321.0,2.765625,12.058349609375,28,283.0,5.46875,51.52734375,35,580.0,6.40625,74.3349609375,31,663.0,11.765625,266.327880859375,41,1313.0,3.765625,20.726318359375,35,353.0,7.609375,107.923583984375,27,714.0,6
267,8.25,113.0615234375,33,821.0,3.703125,17.702880859375,33,332.0,3.078125,15.068115234375,26,314.0,5.625,53.2412109375,37,596.0,6.703125,77.521240234375,33,725.0,12.390625,245.693115234375,45,1394.0,3.765625,20.169677734375,31,363.0,8.03125,120.05859375,25,810.0,6
268,6.765625,73.607177734375,37,690.0,3.015625,13.638427734375,26,278.0,2.59375,9.7255859375,25,242.0,5.265625,44.454833984375,36,528.0,5.1875,42.77734375,32,545.0,14.03125,334.5458984375,39,1548.0,3.625,20.46875,27,347.0,5.71875,56.0849609375,32,618.0,6
269,6.25,60.65234375,29,604.0,2.703125,12.017333984375,24,274.0,2.453125,9.120849609375,24,226.0,6.046875,60.458740234375,42,638.0,5.046875,41.206787109375,38,554.0,12.703125,291.294677734375,33,1280.0,3.390625,19.738037109375,24,329.0,5.6875,47.5458984375,31,532.0,6
270,6.453125,70.042724609375,25,626.0,2.859375,11.611083984375,26,268.0,2.515625,8.919677734375,22,221.0,5.25,51.3505859375,35,531.0,5.140625,47.952880859375,36,540.0,13.359375,283.712646484375,37,1380.0,3.265625,17.468505859375,31,351.0,5.953125,60.863037109375,29,558.0,6
271,7.203125,87.374755859375,39,768.0,2.703125,10.378662109375,29,240.0,2.5625,10.0537109375,21,234.0,4.453125,33.433349609375,32,441.0,4.515625,41.197021484375,35,475.0,15.015625,409.218505859375,41,1641.0,3.5,20.0458984375,36,376.0,5.609375,67.882568359375,40,606.0,6
272,7.328125,90.669677734375,40,768.0,2.921875,12.964599609375,29,296.0,2.609375,10.015380859375,21,237.0,5.609375,49.034912109375,39,610.0,5.046875,43.003662109375,39,561.0,13.1875,336.4990234375,39,1373.0,3.515625,21.044677734375,29,365.0,5.265625,61.157958984375,38,534.0,6
273,6.1875,67.3818359375,28,615.0,2.9375,13.27734375,26,284.0,2.515625,7.950927734375,25,231.0,5.390625,43.950927734375,41,604.0,8.140625,185.284912109375,41,943.0,12.90625,316.5068359375,42,1408.0,3.0,15.28125,24,313.0,4.9375,45.27734375,35,510.0,6
274,7.671875,98.075927734375,28,742.0,2.921875,12.527099609375,29,278.0,3.015625,12.380615234375,30,272.0,4.875,37.3896484375,42,547.0,9.09375,209.6162109375,34,1046.0,11.890625,309.286865234375,42,1317.0,2.96875,14.05859375,25,289.0,6.359375,68.827880859375,37,664.0,6
275,8.296875,111.460693359375,31,815.0,2.890625,12.366943359375,32,316.0,3.109375,14.486083984375,28,291.0,5.265625,45.482177734375,42,596.0,6.078125,64.732177734375,31,673.0,10.46875,203.6396484375,34,1054.0,3.484375,18.142333984375,30,346.0,6.6875,72.015625,34,655.0,6
276,6.265625,61.829833984375,30,603.0,2.90625,11.9990234375,30,274.0,2.875,14.5615234375,24,281.0,5.015625,40.695068359375,41,541.0,4.46875,29.6787109375,28,462.0,10.796875,194.329833984375,30,1090.0,3.453125,19.753662109375,30,373.0,5.328125,47.009521484375,28,516.0,6
277,7.203125,76.542724609375,34,697.0,2.625,10.21484375,29,216.0,2.84375,12.421875,29,289.0,4.1875,27.6005859375,32,405.0,4.625,33.7490234375,30,475.0,12.25,255.68359375,33,1338.0,3.6875,21.27734375,32,369.0,6.484375,74.099365234375,33,702.0,6
278,6.96875,78.6865234375,32,675.0,2.5,10.1787109375,30,226.0,3.125,12.6005859375,26,279.0,3.890625,21.700927734375,29,343.0,5.703125,49.702880859375,33,567.0,14.28125,369.265625,36,1635.0,3.953125,24.366943359375,29,388.0,6.46875,70.87109375,34,658.0,6
279,5.546875,55.435302734375,31,553.0,2.484375,10.357177734375,34,246.0,2.78125,11.203125,19,236.0,4.078125,29.183349609375,34,408.0,5.90625,53.9443359375,33,588.0,11.703125,266.116943359375,33,1264.0,2.953125,17.915771484375,23,304.0,5.46875,49.8896484375,25,487.0,6
280,5.5,58.46875,32,557.0,2.203125,7.460693359375,25,202.0,1.953125,5.695068359375,19,188.0,3.875,28.15234375,37,414.0,4.421875,35.154052734375,28,457.0,8.9375,137.99609375,32,906.0,3.359375,19.898193359375,26,307.0,5.8125,58.9375,25,549.0,6
281,5.921875,63.325927734375,35,621.0,2.328125,8.259521484375,22,204.0,1.890625,5.599365234375,18,184.0,3.671875,21.173583984375,37,378.0,4.03125,28.6875,28,416.0,8.96875,144.68359375,37,936.0,3.421875,20.419677734375,22,309.0,5.921875,58.491943359375,28,561.0,6
282,7.1875,86.5380859375,38,778.0,2.734375,11.827880859375,28,262.0,2.21875,6.8505859375,23,191.0,4.3125,27.2255859375,38,452.0,4.984375,39.195068359375,31,504.0,9.265625,138.665771484375,36,955.0,2.46875,9.5,23,238.0,6.515625,69.241943359375,32,636.0,6
283,7.5,90.99609375,36,782.0,2.921875,12.784912109375,30,290.0,2.546875,9.447021484375,25,234.0,4.65625,35.953125,38,478.0,10.59375,219.9443359375,33,1074.0,11.828125,227.480224609375,30,1182.0,3.390625,16.472412109375,31,307.0,6.765625,73.265380859375,37,686.0,6
284,8.015625,104.782958984375,30,785.0,2.703125,11.138427734375,25,260.0,2.328125,8.941162109375,22,221.0,4.421875,35.706787109375,37,455.0,13.390625,287.468505859375,39,1392.0,13.734375,319.404052734375,30,1460.0,4.0625,24.49609375,35,418.0,6.875,76.4755859375,34,714.0,6
285,9.15625,137.52734375,25,828.0,2.5625,11.0849609375,25,257.0,2.5,9.0625,26,229.0,4.5625,31.37109375,40,471.0,9.640625,152.501708984375,38,1040.0,13.921875,311.708740234375,36,1496.0,3.328125,16.937255859375,30,328.0,7.46875,96.71484375,28,741.0,6
286,7.40625,100.83984375,30,674.0,2.359375,8.954833984375,26,235.0,2.671875,9.282958984375,27,238.0,4.734375,38.851318359375,31,502.0,15.75,640.21484375,39,1764.0,12.875,259.3271484375,43,1475.0,2.578125,9.171630859375,23,224.0,6.265625,72.273193359375,26,611.0,6
287,7.453125,107.519287109375,35,699.0,2.59375,9.34375,27,241.0,2.765625,11.995849609375,24,265.0,5.125,48.359375,33,575.0,20.109375,794.517333984375,43,2311.0,10.875,195.5068359375,36,1177.0,2.921875,12.902099609375,22,260.0,7.546875,119.552490234375,27,722.0,6
288,7.609375,107.734130859375,34,702.0,2.40625,8.2177734375,27,218.0,2.734375,13.099365234375,19,270.0,4.8125,37.49609375,34,499.0,11.609375,249.896240234375,31,1284.0,12.234375,230.638427734375,36,1275.0,3.140625,17.116943359375,28,313.0,7.984375,128.607177734375,33,763.0,6
289,5.921875,58.958740234375,32,579.0,1.703125,4.603271484375,16,150.0,2.3125,8.77734375,14,206.0,3.59375,20.9287109375,24,352.0,6.078125,59.902099609375,26,604.0,13.96875,282.96484375,40,1439.0,2.625,12.58984375,26,276.0,5.828125,55.312255859375,32,556.0,6
290,6.75,71.859375,31,647.0,1.796875,5.835693359375,15,163.0,2.546875,10.318115234375,19,231.0,3.453125,19.277099609375,26,350.0,5.53125,47.0849609375,30,541.0,12.828125,256.769287109375,38,1331.0,2.375,9.4521484375,24,226.0,5.828125,49.835693359375,29,518.0,6
291,7.171875,80.503662109375,37,721.0,2.328125,6.784912109375,23,186.0,2.984375,11.763427734375,27,277.0,4.125,25.4365234375,30,409.0,6.46875,75.7412109375,32,656.0,12.09375,249.2099609375,38,1290.0,2.90625,15.90234375,25,290.0,5.46875,47.27734375,28,511.0,6
292,6.984375,75.577880859375,40,713.0,2.59375,7.4677734375,27,191.0,3.0,10.1240234375,34,276.0,4.25,29.8896484375,30,412.0,6.96875,85.0693359375,37,699.0,12.46875,258.71484375,39,1371.0,3.25,17.2958984375,30,345.0,5.828125,61.675537109375,34,634.0,6
293,6.65625,74.71484375,36,681.0,2.375,7.7255859375,24,194.0,2.328125,7.079833984375,27,213.0,4.0,29.3125,37,454.0,6.15625,62.796875,34,605.0,11.734375,222.962646484375,36,1248.0,2.96875,13.1787109375,32,313.0,6.5,71.58984375,35,699.0,6
294,6.734375,79.269287109375,30,634.0,2.203125,6.724365234375,28,210.0,1.953125,5.452880859375,18,179.0,4.03125,25.0302734375,39,437.0,6.40625,68.0458984375,32,660.0,11.765625,243.515380859375,35,1196.0,2.9375,12.296875,31,291.0,6.90625,82.578125,28,677.0,6
295,6.3125,70.27734375,29,595.0,2.09375,5.4677734375,25,184.0,2.03125,5.49609375,23,190.0,4.0625,23.78125,35,412.0,6.46875,68.21484375,33,721.0,12.171875,259.447021484375,39,1277.0,3.28125,14.890625,34,325.0,6.796875,84.917724609375,29,659.0,6
296,5.640625,65.909912109375,31,586.0,1.84375,4.4375,15,151.0,1.984375,4.825927734375,23,177.0,4.03125,24.7724609375,30,408.0,5.859375,52.755615234375,31,608.0,12.21875,233.015625,37,1271.0,3.234375,16.097412109375,29,336.0,6.515625,79.116943359375,35,655.0,6
297,8.1875,128.9443359375,31,847.0,2.171875,7.546630859375,22,211.0,2.203125,6.183349609375,21,202.0,4.421875,31.599365234375,35,459.0,5.421875,47.376708984375,34,516.0,15.0,370.37109375,39,1658.0,2.9375,13.4287109375,31,316.0,7.59375,104.9375,32,823.0,6
298,8.0625,111.8896484375,35,767.0,2.015625,7.234130859375,22,199.0,2.203125,6.540771484375,24,203.0,5.5,51.6162109375,42,606.0,6.375,72.515625,43,674.0,15.21875,378.4375,44,1681.0,2.8125,12.18359375,27,256.0,7.0,84.3583984375,26,703.0,6
299,5.9375,68.83984375,32,613.0,2.203125,11.648193359375,19,241.0,2.03125,5.9287109375,19,188.0,5.140625,46.472412109375,36,559.0,5.859375,61.773193359375,42,628.0,12.046875,213.784912109375,40,1288.0,2.6875,11.52734375,27,264.0,5.84375,60.9599609375,29,569.0,6
300,6.703125,88.818115234375,27,678.0,2.546875,12.415771484375,21,259.0,2.1875,6.2490234375,18,193.0,4.15625,26.1162109375,36,439.0,5.40625,47.7412109375,34,567.0,12.71875,290.8583984375,40,1387.0,2.796875,12.728271484375,29,288.0,6.28125,71.9130859375,33,583.0,6
301,7.625,97.0458984375,29,686.0,2.421875,8.683349609375,18,197.0,2.375,7.6318359375,16,192.0,4.609375,32.370849609375,39,484.0,6.234375,59.034912109375,33,653.0,16.1875,463.4833984375,45,1876.0,3.015625,14.253662109375,24,282.0,7.265625,91.923583984375,34,686.0,6
302,7.515625,97.044677734375,33,725.0,2.421875,9.734130859375,24,234.0,2.453125,8.947021484375,18,205.0,4.4375,30.1396484375,34,426.0,5.0,40.7255859375,28,510.0,15.484375,381.154052734375,43,1753.0,3.21875,16.62109375,31,325.0,7.546875,112.288818359375,37,813.0,6
303,6.65625,77.6396484375,28,650.0,2.1875,7.4990234375,23,199.0,2.0625,6.1474609375,27,175.0,3.796875,20.347412109375,32,355.0,4.265625,30.417724609375,25,435.0,13.78125,312.2021484375,41,1500.0,3.03125,14.7177734375,37,317.0,6.109375,78.470458984375,36,650.0,6
