"type","begin_time","frequency","count","created with version","exported with version","project","last_name","first_name","born","sex","measurement_date","record_name"
"record","0.33600","1500","19116","MR3 3.7.45","3.18.64","Project 1","MyoMetrics Demo Record","","","male","2015-06-23T08:45:22.000Z","Treadmill Gait with MyoMotion & EMG  - Bilateral Gait Report"

"time","Activity","Marker","Ankle Dorsiflexion 左 (deg)","Ankle Abduction 左 (deg)","Ankle Inversion 左 (deg)","Ankle Dorsiflexion 右 (deg)","Ankle Abduction 右 (deg)","Ankle Inversion 右 (deg)","TIB.ANT. 左 (uV)","TIB.ANT. 右 (uV)","MED. GASTRO 左 (uV)","MED. GASTRO 右 (uV)"
0.33600,"Begin","",-9.777691841,2.322262764,0.9241800308,-13.07748318,-4.337887764,3.317843437,4.548943252,15.12845795,11.55258486,6.248286675
0.33667,"","",-9.777691841,2.322262764,0.9241800308,-13.07748318,-4.337887764,3.317843437,4.561542199,15.25087156,11.6757433,6.267386192
0.33733,"","",-9.777691841,2.322262764,0.9241800308,-13.07748318,-4.337887764,3.317843437,4.58903081,15.3882005,11.75144857,6.274275461
0.33800,"","",-9.777691841,2.322262764,0.9241800308,-13.07748318,-4.337887764,3.317843437,4.594817886,15.53642155,11.80135844,6.287941977
0.33867,"","",-9.777691841,2.322262764,0.9241800308,-13.07748318,-4.337887764,3.317843437,4.628334702,15.67919655,11.83284304,6.297519741
0.33933,"","",-9.777691841,2.322262764,0.9241800308,-13.07748318,-4.337887764,3.317843437,4.674088774,15.79214089,11.84124755,6.298751968
0.34000,"","",-9.777691841,2.322262764,0.9241800308,-13.07748318,-4.337887764,3.317843437,4.713030976,15.86166397,11.84150615,6.3027287
0.34067,"","",-9.777691841,2.322262764,0.9241800308,-13.07748318,-4.337887764,3.317843437,4.747934279,15.91489795,12.05743748,6.308273721
0.34133,"","",-9.777691841,2.322262764,0.9241800308,-13.07748318,-4.337887764,3.317843437,4.778738403,15.94644582,12.42393888,6.328717487
0.34200,"","",-9.777691841,2.322262764,0.9241800308,-13.07748318,-4.337887764,3.317843437,4.802790938,15.9827038,12.67245386,6.355938499
0.34267,"","",-9.777691841,2.322262764,0.9241800308,-13.07748318,-4.337887764,3.317843437,4.813280014,16.07185231,12.77447172,6.385904019
0.34333,"","",-9.777691841,2.322262764,0.9241800308,-13.07748318,-4.337887764,3.317843437,4.81966991,16.1406885,12.84390593,6.411780784
0.34400,"","",-9.777691841,2.322262764,0.9241800308,-13.07748318,-4.337887764,3.317843437,4.82141809,16.17424799,12.98251574,6.420014301
0.34467,"","",-9.777691841,2.322262764,0.9241800308,-13.07748318,-4.337887764,3.317843437,4.848906701,16.20913219,13.0533076,6.423991033
0.34533,"","",-9.735039711,2.316683292,0.8997187018,-13.23001862,-4.35827446,3.333273649,4.892671463,16.26575155,13.33789734,6.427967766
0.34600,"","",-9.691841125,2.311104059,0.8752573729,-13.38320923,-4.378661156,3.349080086,4.926971945,16.36304461,13.69166267,6.43054424
0.34667,"","",-9.648641586,2.305214643,0.8507960439,-13.53639984,-4.399048328,3.364510059,4.946322481,16.51190349,13.74480505,6.438777757
0.34733,"","",-9.60599041,2.299635172,0.8263346553,-13.68959045,-4.419435024,3.380316496,4.953496044,16.68244847,13.84682291,6.468743276
0.34800,"","",-9.562790871,2.294055939,0.8018733263,-13.84212589,-4.43982172,3.395746469,4.961272428,16.87335482,13.98084256,6.502741537
0.34867,"","",-9.519592285,2.288476467,0.7774119973,-13.99531651,-4.460208416,3.411552906,4.98261227,17.11038094,14.08286042,6.527274054
0.34933,"","",-9.476940155,2.282896996,0.7529506683,-14.14850712,-4.480595589,3.426983118,5.017515574,17.36639465,14.35982144,6.555895325
0.35000,"","",-9.43374157,2.277317762,0.7284893394,-14.30104256,-4.500982285,3.442413092,5.068695027,17.61019154,14.36958361,6.591293844
0.35067,"","",-9.390542984,2.271738291,0.7040279508,-14.45423317,-4.52136898,3.458219528,5.126626071,17.87160225,14.43087191,6.62260361
0.35133,"","",-9.347890854,2.266159058,0.6795666218,-14.60742283,-4.541755676,3.47364974,5.198120576,18.1615189,14.71597885,6.651224881
0.35200,"","",-9.304692268,2.260269642,0.6551052928,-14.75995922,-4.562142372,3.489456177,5.298128485,18.44191721,14.80034723,6.675757398
0.35267,"","",-9.261493683,2.25469017,0.6306439638,-14.91314888,-4.582529545,3.50488615,5.421164137,18.7047017,14.86654893,6.696201164
0.35333,"","",-9.218841553,2.249110937,0.6061826348,-15.06633949,-4.602916241,3.520316124,5.559149731,18.94035403,14.89260292,6.720733681
0.35400,"","",-9.175642014,2.243531466,0.5817212462,-15.21953011,-4.623302937,3.536122561,5.697135325,19.1298866,14.93843984,6.754731942
0.35467,"","",-9.132443428,2.237951994,0.5572599173,-15.37206554,-4.643689632,3.551552773,5.809320205,19.31127463,15.05752532,6.800940451
0.35533,"","",-9.087058067,2.224003553,0.5147073865,-15.50234318,-4.640512466,3.559455872,5.868637735,19.45331367,15.07407575,6.860703456
0.35600,"","",-9.041124344,2.210365057,0.4719000459,-15.63196564,-4.637600422,3.567735434,5.870988735,19.51061992,15.20182435,6.915089472
0.35667,"","",-8.995738983,2.196416616,0.4290927052,-15.76224327,-4.634687901,3.575638771,5.89443845,19.81613879,15.20479825,6.953176486
0.35733,"","",-8.950352669,2.182468176,0.3865401447,-15.89186573,-4.631510735,3.58354187,5.926026242,20.26001692,15.5015422,6.995352254
0.35800,"","",-8.904419899,2.168519735,0.3437328041,-16.02148819,-4.628598213,3.591445208,5.996917923,20.74461782,15.7304682,7.052426767
0.35867,"","",-8.859033585,2.154881239,0.3009254634,-16.15176582,-4.625421047,3.59972477,6.108499988,21.16950837,16.060313,7.105412526
0.35933,"","",-8.813100815,2.140932798,0.2583729029,-16.28138733,-4.622508526,3.607627869,6.187529749,21.43297974,16.46883697,7.150276786
0.36000,"","",-8.7677145,2.126984358,0.2155655622,-16.41166496,-4.619596481,3.615531206,6.205554079,21.56353791,16.62050609,7.196485295
0.36067,"","",-8.721781731,2.113345861,0.1727582216,-16.54128838,-4.616419315,3.623434305,6.205915772,21.62898871,16.88473105,7.250871311
0.36133,"","",-8.676395416,2.099397421,0.130205676,-16.67156601,-4.613506794,3.631713867,6.21441554,21.65033136,16.91427614,7.309290068
0.36200,"","",-8.630462646,2.08544898,0.08739833534,-16.80118752,-4.610594273,3.639617205,6.233766075,21.73815516,17.1812164,7.366364581
0.36267,"","",-8.585076332,2.071810484,0.04459098727,-16.93081093,-4.607417107,3.647520304,6.263967379,21.8178344,17.62581513,7.420750597
0.36333,"","",-8.539690971,2.057862043,0.002038445091,-17.06108856,-4.604504585,3.655423403,6.271140942,21.88529681,17.71238161,7.469703611
0.36400,"","",-8.493757248,2.043913603,-0.04076890275,-17.19071007,-4.601327419,3.663702965,6.308756938,21.97719288,17.81032652,7.506446377
0.36467,"","",-8.448371887,2.029965162,-0.0835762471,-17.3209877,-4.598415375,3.671606302,6.359936392,22.11653342,17.85752109,7.539100391
0.36533,"","",-8.378378868,2.012607098,-0.1116048694,-17.41853142,-4.579352379,3.670853615,6.397552388,22.29252444,17.86948136,7.577187405
0.36600,"","",-8.308932304,1.99493897,-0.1398883015,-17.51607704,-4.560289383,3.670477152,6.428356511,22.45492487,17.91861543,7.619363173
0.36667,"","",-8.239486694,1.977270961,-0.1681717187,-17.61362076,-4.541226387,3.669724464,6.467298713,22.59696391,17.95223349,7.664227433
0.36733,"","",-8.170040131,1.959912896,-0.1964551508,-17.71051025,-4.52189827,3.66934824,6.498102836,22.76888267,17.991864,7.709091694
0.36800,"","",-8.100593567,1.942244887,-0.2247385681,-17.80805397,-4.502835751,3.668595552,6.54458029,22.95978902,18.16713042,7.749867205
0.36867,"","",-8.030601501,1.924576759,-0.2530219853,-17.90559959,-4.483772755,3.66821909,6.687388449,23.11811717,18.35862401,7.78660997
0.36933,"","",-7.961154938,1.906908751,-0.2813054323,-18.00314331,-4.464709759,3.667466402,6.827483919,23.24931316,18.65323451,7.826041233
0.37000,"","",-7.891708851,1.889550686,-0.3095888495,-18.10068703,-4.445646763,3.667090178,6.872635167,23.36829232,18.99801349,7.860039493
0.37067,"","",-7.822262764,1.871882677,-0.3378722668,-18.19823265,-4.426583767,3.66633749,6.888549626,23.44797157,19.12033148,7.896782259
0.37133,"","",-7.7528162,1.854214549,-0.3659009039,-18.29577637,-4.40725565,3.665961027,6.890297805,23.47476028,19.21362157,7.949768018
0.37200,"","",-7.683370113,1.836856484,-0.3941843212,-18.39332008,-4.388192654,3.66520834,6.938161749,23.47510372,19.43718162,8.004154034
0.37267,"","",-7.613377094,1.819188476,-0.4224677384,-18.49086571,-4.369129658,3.664832115,7.032141453,23.47883255,19.72448665,8.042241048
0.37333,"","",-7.543931007,1.801520467,-0.4507511854,-18.58840942,-4.350066662,3.664079428,7.138298128,23.49880143,19.81234613,8.076239309
0.37400,"","",-7.474484921,1.783852339,-0.4790346026,-18.68595314,-4.331004143,3.663702965,7.229565142,23.55811929,19.84324888,8.114326323
0.37467,"","",-7.405038834,1.766494274,-0.5073180199,-18.78349686,-4.311941147,3.662950277,7.324871055,23.67577373,20.26211688,8.142947594
0.37533,"","",-7.315907001,1.740457177,-0.5264284611,-18.83979797,-4.282022476,3.651283741,7.416138069,23.8083435,20.78675244,8.16339136
0.37600,"","",-7.226775169,1.71442008,-0.5455388427,-18.89609909,-4.252368927,3.639240742,7.464002012,23.89072123,20.94921814,8.190612372
0.37667,"","",-7.137643814,1.688073039,-0.5646492839,-18.95174599,-4.222450733,3.627197742,7.473888267,23.93105149,20.98962445,8.220577891
0.37733,"","",-7.049058914,1.662035823,-0.5837597251,-19.0080452,-4.192532539,3.615154743,7.485100728,23.95509264,21.13179002,8.246454657
0.37800,"","",-6.959927082,1.635998726,-0.6028701067,-19.06434631,-4.16287899,3.603488207,7.509876648,23.96289375,21.25223315,8.273675669
0.37867,"","",-6.87079525,1.609961629,-0.6222353578,-19.12064743,-4.132960796,3.591445208,7.542790644,24.01274234,21.34009264,8.310418435
0.37933,"","",-6.781663895,1.583924532,-0.641345799,-19.17694855,-4.103307247,3.579402208,7.582516512,24.17514276,21.37642599,8.355282695
0.38000,"","",-6.692532063,1.557887435,-0.6604561806,-19.23324966,-4.073389053,3.567359209,7.62495507,24.41893966,21.40112233,8.400146955
0.38067,"","",-6.60340023,1.531850338,-0.6795666218,-19.28954887,-4.043735504,3.55531621,7.666007142,24.68309793,21.40493669,8.43280097
0.38133,"","",-6.514815331,1.505813122,-0.698677063,-19.34584999,-4.013816833,3.543649435,7.70434652,24.95535169,21.44592485,8.446467486
0.38200,"","",-6.425683975,1.479776025,-0.7177875042,-19.40149689,-3.984163523,3.531606436,7.72237085,25.22083468,21.5112861,8.450444218
0.38267,"","",-6.336552143,1.453738928,-0.7368978858,-19.457798,-3.954245329,3.519563437,7.740998002,25.44564396,21.62358332,8.453020693
0.38333,"","",-6.247420311,1.427701831,-0.756008327,-19.51409721,-3.92459178,3.507520437,7.774514818,25.63110427,21.73316524,8.461254209
0.38400,"","",-6.158288956,1.401664734,-0.7751187682,-19.57039833,-3.894673347,3.495853901,7.798567353,25.83147989,21.79988414,8.46136623
0.38467,"","",-6.069704056,1.375627637,-0.7942291498,-19.62669945,-3.865019798,3.483810902,7.829371476,26.07665055,21.83214454,8.477553211
0.38533,"","",-5.996976852,1.331612468,-0.8107915521,-19.64241219,-3.82159853,3.464617491,7.873739059,26.328592,21.86712025,8.485562686
0.38600,"","",-5.924249649,1.287597299,-0.8273538947,-19.65812302,-3.7781775,3.445423841,7.892366211,26.56561811,22.26614067,8.488139161
0.38667,"","",-5.852069378,1.243892193,-0.843916297,-19.67383575,-3.734756231,3.426230431,7.89471721,26.81888427,22.90934454,8.498893141
0.38733,"","",-5.779342175,1.199877024,-0.8604786396,-19.68889236,-3.691334963,3.407036781,7.948609359,27.09113803,23.38704412,8.501469616
0.38800,"","",-5.707161903,1.155861974,-0.8770409822,-19.7046032,-3.647913694,3.38784337,8.047230778,27.3593195,23.75083023,8.507014637
0.38867,"","",-5.634435177,1.112156749,-0.8933485746,-19.72031593,-3.604492426,3.368649721,8.121437974,27.63701932,24.06852083,8.509815153
0.38933,"","",-5.561707973,1.068141699,-0.9099109173,-19.73602867,-3.561071157,3.34945631,8.137352433,27.92286368,24.29259808,8.531603165
0.39000,"","",-5.489527702,1.024436474,-0.9264733195,-19.7517395,-3.517385244,3.330262899,8.181117196,28.13952841,24.43528085,8.583244676
0.39067,"","",-5.416800499,0.9804213643,-0.9430356622,-19.76745224,-3.473963976,3.31106925,8.265572338,28.17578639,24.45803768,8.644407938
0.39133,"","",-5.344620228,0.9364062548,-0.9595980048,-19.78316307,-3.430542707,3.291875839,8.34870128,28.36468115,24.49301339,8.712348451
0.39200,"","",-5.271893501,0.8927010894,-0.9761604071,-19.79887581,-3.387121439,3.27268219,8.427731042,28.67701985,24.75368259,8.774855961
0.39267,"","",-5.19971323,0.8486859798,-0.9924679399,-19.81458664,-3.343700171,3.253488779,8.535274207,28.941865,24.83940862,8.804821481
0.39333,"","",-5.126986027,0.8049808145,-1.009030342,-19.82964325,-3.300278902,3.23429513,8.646856272,29.1009291,25.55527918,8.818487997
0.39400,"","",-5.054258823,0.7609657049,-1.025592685,-19.84535599,-3.256857634,3.215101719,8.724559824,29.24370409,26.53026732,8.836243267
0.39467,"","",-4.982078552,0.7169505954,-1.042155027,-19.86106682,-3.213436604,3.195908308,8.760186511,29.49363392,26.99115789,8.836355288
0.39533,"","",-4.939973354,0.6735553741,-1.055659771,-19.878088,-3.070729017,3.149241686,8.773388279,29.84802011,27.13603877,8.844364763
0.39600,"","",-4.897868156,0.6301602125,-1.069164395,-19.89510918,-2.928286076,3.102575064,8.819142351,30.14951574,27.30665037,8.860775786
0.39667,"","",-4.855762959,0.5870749354,-1.082669139,-19.91213036,-2.785578489,3.055908442,8.859471038,30.28007391,27.46640077,8.885308303
0.39733,"","",-4.813657761,0.5436797738,-1.096173882,-19.92915154,-2.642870903,3.009241819,8.913363187,30.29263418,27.65737717,8.898974819
0.39800,"","",-4.77155304,0.5002845526,-1.109678507,-19.94617271,-2.500427961,2.96295166,9.001133844,30.31260306,27.82391583,8.913985584
0.39867,"","",-4.729447842,0.4568893909,-1.123438001,-19.96253967,-2.357720375,2.916285038,9.056352197,30.33801799,27.88927708,8.923563348
0.39933,"","",-4.687342644,0.4134941995,-1.136942744,-19.97956085,-2.215012789,2.869618416,9.068951144,30.35666215,28.06318584,8.934317328
0.40000,"","",-4.645237446,0.3700990081,-1.150447488,-19.99658203,-2.072305202,2.822951794,9.078837399,30.3996909,28.11632822,8.954537053
0.40067,"","",-4.603132248,0.3267038167,-1.163952112,-20.01360321,-1.929862261,2.77628541,9.079199091,30.49291168,28.11794447,8.972068281
0.40133,"","",-4.56102705,0.2833086252,-1.177456856,-20.03062439,-1.787154675,2.729618788,9.141952697,30.57391564,28.14264081,8.98959951
0.40200,"","",-4.518921852,0.2399134189,-1.190961599,-20.04764557,-1.644447088,2.682952166,9.245396682,30.62646273,28.14917047,8.997608985
0.40267,"","",-4.476816654,0.1965182275,-1.204466224,-20.06401253,-1.502004266,2.636285543,9.293260625,30.72105729,28.17192731,9.011275501
0.40333,"","",-4.434711456,0.153123036,-1.217970967,-20.08103371,-1.35929656,2.589618921,9.306462393,30.83056718,28.17218591,9.042585267
0.40400,"","",-4.392606258,0.1097278446,-1.231475592,-20.09805489,-1.216588974,2.542952299,9.327199415,30.87496971,28.17600026,9.069806279
0.40467,"","",-4.35050106,0.06664261967,-1.244980335,-20.11507607,-1.074146152,2.49666214,9.434742581,30.89086631,28.1987571,9.074007053
0.40533,"","",-4.310583591,0.03812577575,-1.25772059,-20.06663132,-0.9420291185,2.446984768,9.569412669,30.9597025,28.21879863,9.091538281
0.40600,"","",-4.270118713,0.009608935565,-1.270460844,-20.01753235,-0.8099120259,2.397307396,9.64169084,31.1098861,28.2312761,9.111758006
0.40667,"","",-4.229653835,-0.01890790462,-1.283201218,-19.96908569,-0.6780596972,2.348006487,9.64404184,31.34691221,28.28306083,9.129289234
0.40733,"","",-4.189189434,-0.04742474481,-1.295941472,-19.91998672,-0.5459426641,2.298329115,9.672133273,31.60832292,28.33756086,9.15359771
0.40800,"","",-4.148724556,-0.075941585,-1.308681726,-19.87154198,-0.4138256013,2.248651743,9.702937396,31.81144611,28.37854903,9.177906186
0.40867,"","",-4.10880661,-0.1044584289,-1.321421981,-19.82244301,-0.2819733024,2.198974609,9.7378407,32.00642474,28.42089484,9.195437415
0.40933,"","",-4.068342209,-0.1329752654,-1.333907485,-19.77399826,-0.1498562247,2.149673462,9.772744004,32.26651074,28.47811018,9.217001386
0.41000,"","",-4.027877331,-0.1614921093,-1.346647739,-19.72555351,-0.01773916557,2.099996328,9.800835436,32.53469221,28.56519386,9.24808711
0.41067,"","",-3.987412691,-0.1900089532,-1.359388113,-19.67645454,0.1141131371,2.050318956,9.823501484,32.75542923,28.66721172,9.269651081
0.41133,"","",-3.946948051,-0.2182158232,-1.372128367,-19.6280098,0.2462301999,2.001017809,9.840380455,32.58591457,28.61484514,9.234196553
0.41200,"","",-3.907030106,-0.2467326671,-1.384868622,-19.57890892,0.3783472776,1.951340556,9.86208199,32.49573574,28.54890204,9.186475764
0.41267,"","",-3.866565466,-0.275249511,-1.397608876,-19.53046417,0.5104643106,1.901663184,9.866120886,32.85183912,28.53998033,9.119823491
0.41333,"","",-3.826100826,-0.30376634,-1.41034925,-19.48201942,0.6423166394,1.852362275,9.872932756,33.40591402,28.44966414,9.066949751
0.41400,"","",-3.785635948,-0.3322831988,-1.422834635,-19.43292046,0.7744336724,1.802684903,9.881070832,33.79184809,28.42929936,9.037096254
0.41467,"","",-3.745171309,-0.3608000278,-1.435575008,-19.38447571,0.906550765,1.753007531,9.882397037,33.94316014,28.40486163,9.030319006
0.41533,"","",-3.706893921,-0.3747484982,-1.439142227,-19.24765205,0.9589739442,1.692792654,9.885109727,34.04697866,28.389087,9.030543047
0.41600,"","",-3.668616533,-0.3886969388,-1.442454696,-19.11148262,1.011397123,1.632201314,9.90409857,34.15957956,28.41947255,9.011555551
0.41667,"","",-3.630339146,-0.4026453793,-1.446022034,-18.97531319,1.063820362,1.571610093,9.936650873,34.285722,28.57055983,9.030543048
0.41733,"","",-3.592061758,-0.4165938497,-1.449589252,-18.83848953,1.116243601,1.511395097,9.988192022,34.41392511,28.79437848,9.045273761
0.41800,"","",-3.55378437,-0.4305422902,-1.452901721,-18.7023201,1.168931603,1.450803876,10.0513676,34.51161069,28.87900546,9.05042671
0.41867,"","",-3.515506983,-0.4441807866,-1.456469059,-18.56549644,1.221354723,1.390212536,10.09338419,34.51298446,28.84648646,9.029870923
0.41933,"","",-3.477229357,-0.458129257,-1.460036278,-18.42932701,1.273777962,1.329997659,10.07843424,34.38276974,29.08245932,8.988983395
0.42000,"","",-3.438951969,-0.4720776975,-1.463348746,-18.29315758,1.3262012,1.269406319,10.06083188,34.3589739,29.64801842,8.958905856
0.42067,"","",-3.400674582,-0.4860261679,-1.466916084,-18.15633392,1.378889084,1.208814979,10.05950568,34.4803081,30.23943754,8.952072597
0.42133,"","",-3.362397194,-0.4999746084,-1.470228553,-18.02016449,1.431312323,1.148600101,10.03919063,34.72238776,30.21092685,8.954761092
0.42200,"","",-3.324119806,-0.513923049,-1.473795772,-17.88334084,1.483735561,1.088008761,10.00392564,35.02687628,30.62921298,8.965627093
0.42267,"","",-3.285842419,-0.5278715491,-1.47736311,-17.7471714,1.5361588,1.027417541,9.993074871,35.24182379,31.45983742,8.967195381
0.42333,"","",-3.247565031,-0.5418199897,-1.480675578,-17.61100197,1.58858192,0.9672025442,10.01073751,35.24516012,32.13181054,8.964282845
0.42400,"","",-3.208740711,-0.5557684302,-1.484242797,-17.47417831,1.641269922,0.9066112638,9.99307487,35.32380903,32.50128585,8.943727059
0.42467,"","",-3.170463324,-0.5697168708,-1.487810135,-17.33800888,1.693693161,0.8460199833,9.976798718,35.46893907,32.62741819,8.917738272
0.42533,"","",-3.137654066,-0.5718866587,-1.487555265,-17.20445824,1.702695131,0.8136544228,9.989759357,35.59915379,32.63556409,8.913481488
0.42600,"","",-3.104298115,-0.5740563869,-1.487300515,-17.07156181,1.711697102,0.7809125781,10.00061012,35.74158534,32.78884947,8.93493344
0.42667,"","",-3.070942163,-0.5762261748,-1.487045646,-16.93801117,1.720963717,0.7485470176,9.970770513,35.85958322,32.79971068,8.944175142
0.42733,"","",-3.037585974,-0.5783959031,-1.486790895,-16.80446053,1.729965687,0.7158051729,9.959919746,35.88671537,33.23377146,8.951176431
0.42800,"","",-3.004230022,-0.580565691,-1.486536026,-16.67090988,1.738967657,0.6830632687,10.02231166,35.84604167,33.47194244,8.940590481
0.42867,"","",-2.971420765,-0.5827354193,-1.486281276,-16.53801537,1.748234391,0.6506977677,10.10580229,35.81351253,33.80424394,8.906872273
0.42933,"","",-2.938064814,-0.5849052072,-1.486026525,-16.40446472,1.757236362,0.6179558635,10.16958069,35.78098338,34.2048806,8.900095024
0.43000,"","",-2.904708862,-0.5867649913,-1.485771656,-16.27091408,1.766238332,0.5855903625,10.19942031,35.76538117,34.53498399,8.890573272
0.43067,"","",-2.871352673,-0.5889347792,-1.485516906,-16.13801765,1.775505066,0.5528484583,10.20074651,35.79040358,35.24982012,8.856855062
0.43133,"","",-2.837996721,-0.5911045074,-1.485262036,-16.00446701,1.784507036,0.5201066136,10.19532113,35.8683656,36.14095706,8.832658607
0.43200,"","",-2.805187464,-0.5932742953,-1.485007286,-15.87091637,1.793509007,0.4877410531,10.2061719,36.03523081,36.67942774,8.816583646
0.43267,"","",-2.771831512,-0.5954440236,-1.484752417,-15.7380209,1.802775741,0.4549991786,10.2346853,36.18443313,36.78254465,8.814119193
0.43333,"","",-2.738475323,-0.5976138115,-1.484497666,-15.60447025,1.811777711,0.4226336479,10.28761294,36.20886679,37.11484615,8.802132986
0.43400,"","",-2.705119371,-0.5997835398,-1.484242797,-15.47091961,1.820779681,0.3898917735,10.3689937,36.10789396,37.82961765,8.761693541
0.43467,"","",-2.67176342,-0.6019533277,-1.483988047,-15.33802319,1.830046415,0.357149899,10.44633556,36.15205117,38.46389979,8.721198083
0.43533,"","",-2.638954163,-0.6022632718,-1.485262036,-15.24178886,1.830840707,0.3398380876,10.49383781,36.26264047,38.94082356,8.698345875
0.43600,"","",-2.606144905,-0.602573216,-1.486536026,-15.14555359,1.831634998,0.3225263059,10.51415286,36.25793035,39.29840326,8.692912874
0.43667,"","",-2.573335648,-0.6028832197,-1.487810135,-15.04866409,1.83242929,0.3048381507,10.50933029,36.1921361,39.31275558,8.688824121
0.43733,"","",-2.539979696,-0.6031931639,-1.489084125,-14.95242882,1.833223581,0.2875263691,10.50722042,36.2443888,39.4836258,8.690168368
0.43800,"","",-2.507170439,-0.6031931639,-1.490358114,-14.85619354,1.834017873,0.2698382139,10.49154709,36.31219466,39.6762831,8.682046873
0.43867,"","",-2.474361181,-0.6035031676,-1.491632223,-14.75995922,1.834812164,0.2525264323,10.47448727,36.44918015,39.71429736,8.664627665
0.43933,"","",-2.44100523,-0.6038131118,-1.492651463,-14.66372395,1.835606456,0.234838292,10.48184168,36.66211605,39.78890356,8.636398469
0.44000,"","",-2.408195972,-0.6041230559,-1.493925452,-14.56748867,1.836135983,0.2175264955,10.48455437,36.82966815,39.88115925,8.602512229
0.44067,"","",-2.375386715,-0.6041230559,-1.495199442,-14.47125435,1.836930275,0.1998383552,10.51379117,36.87922235,40.13697969,8.588957733
0.44133,"","",-2.342030764,-0.6044330597,-1.496473551,-14.37501907,1.837724566,0.1825265586,10.55387873,36.95590872,40.76499076,8.578315773
0.44200,"","",-2.309221506,-0.6047430038,-1.49774754,-14.2787838,1.838518858,0.1652147621,10.54785052,37.05565496,41.0153806,8.564985318
0.44267,"","",-2.276412487,-0.605052948,-1.49902153,-14.18254852,1.839313149,0.1475266218,10.5160216,37.11879978,41.03438772,8.545997821
0.44333,"","",-2.243056297,-0.6053629518,-1.500295639,-14.0863142,1.840107441,0.1302148253,10.49100455,37.04073964,41.05876081,8.532443325
0.44400,"","",-2.21024704,-0.6053629518,-1.501569629,-13.99007893,1.840901732,0.1125266775,10.46598751,36.94236718,41.03025011,8.532443325
0.44467,"","",-2.177438021,-0.6056728959,-1.502843618,-13.89318943,1.841696024,0.095214881,10.43554507,36.82770562,41.13608231,8.533787572
0.44533,"","",-2.144628763,-0.611562252,-1.504882097,-13.78778934,1.843019843,0.05607516691,10.40648913,36.68865945,41.18760845,8.540564821
0.44600,"","",-2.111272573,-0.6171416044,-1.506665707,-13.68173409,1.844078898,0.01731179655,10.38008559,36.65269586,41.03025011,8.531267109
0.44667,"","",-2.078463554,-0.6227210164,-1.508704185,-13.576334,1.845137954,-0.02145157382,10.37273118,36.77672857,41.03516353,8.497380869
0.44733,"","",-2.045654297,-0.6286103725,-1.510742664,-13.47027874,1.846461773,-0.06021494418,10.3978688,36.8702928,41.5188109,8.463494629
0.44800,"","",-2.012845039,-0.6341897249,-1.512781024,-13.36422443,1.847520828,-0.099354662,10.44205553,36.88928039,41.92520145,8.441818639
0.44867,"","",-1.979488969,-0.6397691369,-1.514819503,-13.25882435,1.848844647,-0.1381180286,10.47599432,36.7306088,41.79771145,8.397066395
0.44933,"","",-1.946679831,-0.645658493,-1.516603112,-13.15276909,1.849903703,-0.1768814027,10.44748092,36.38677128,41.99573471,8.310474448
0.45000,"","",-1.913870573,-0.6512378454,-1.518641591,-13.04671478,1.850962758,-0.2156447768,10.39051438,35.99818778,41.85065988,8.184563257
0.45067,"","",-1.881061435,-0.6568172574,-1.52068007,-12.94131374,1.852286577,-0.2547844946,10.35524939,35.4780158,41.8677275,8.046441822
0.45133,"","",-1.847705364,-0.6627065539,-1.52271843,-12.83525944,1.853345633,-0.2935478687,10.3478347,34.8249306,42.00278156,7.925907621
0.45200,"","",-1.814896107,-0.6682859659,-1.524502158,-12.72920418,1.854404688,-0.3323112428,10.24957496,34.25932578,42.30741283,7.821448387
0.45267,"","",-1.782086968,-0.6741753221,-1.526540518,-12.62380409,1.855728507,-0.3710745871,10.21641984,33.90940438,42.62697826,7.748186895
0.45333,"","",-1.749277711,-0.6797546744,-1.528578997,-12.51774883,1.856787562,-0.4102143049,10.16005613,33.73576841,42.8860312,7.670892658
0.45400,"","",-1.71592164,-0.6853340864,-1.530617476,-12.41169453,1.858111382,-0.448977679,10.12678045,33.74391296,43.22382798,7.577299425
0.45467,"","",-1.683112502,-0.6912234426,-1.532655954,-12.30629444,1.859170437,-0.4877410531,10.13142216,33.78252599,43.53447171,7.468751433
0.45533,"","",-1.651943684,-0.697732687,-1.531127095,-12.21071339,1.856522799,-0.5197302699,10.12388691,33.73704406,43.5669907,7.339871697
0.45600,"","",-1.621321797,-0.7039319873,-1.529598236,-12.11513329,1.854139924,-0.5520957708,10.10953978,33.71869428,43.52277004,7.210991968
0.45667,"","",-1.590153098,-0.7104412913,-1.528069377,-12.01955318,1.851492286,-0.5840849876,10.08572837,33.70441678,43.54585013,7.113365989
0.45733,"","",-1.55898428,-0.7169505954,-1.526540518,-11.92397308,1.848844647,-0.6160741448,10.07216491,33.75053655,43.80626074,7.030638754
0.45800,"","",-1.52781558,-0.7234598398,-1.525266528,-11.82839203,1.846197009,-0.6480633616,10.12370606,33.8522944,43.69771322,6.927523761
0.45867,"","",-1.496646762,-0.7299691439,-1.523737669,-11.73281193,1.843814135,-0.6804288626,10.209186,33.83870379,43.84479218,6.817687535
0.45933,"","",-1.466024876,-0.7364783883,-1.522208929,-11.63723183,1.841166496,-0.7124180794,10.26422351,33.66369404,43.85481294,6.726782792
0.46000,"","",-1.434856176,-0.7429876924,-1.52068007,-11.54165173,1.838518858,-0.7444072366,10.24330564,33.41140914,43.97422167,6.644055559
0.46067,"","",-1.403687358,-0.7494969964,-1.519405961,-11.44607162,1.83587122,-0.7763964534,10.20743782,33.15097969,44.15188014,6.562672574
0.46133,"","",-1.372518659,-0.7560062408,-1.517877221,-11.35049057,1.833488345,-0.8087619543,10.19459775,32.91223635,44.07048567,6.51539987
0.46200,"","",-1.341896653,-0.7625155449,-1.516348362,-11.25491047,1.830840707,-0.8407511711,10.2008068,32.68978212,44.18388195,6.473560163
0.46267,"","",-1.310727954,-0.7690247893,-1.514819503,-11.15998459,1.828193069,-0.8727403879,10.23956815,32.47341177,44.30678178,6.419510209
0.46333,"","",-1.279559255,-0.7755340934,-1.513545513,-11.06440449,1.82554543,-0.9047295451,10.22600469,32.2794144,44.45683466,6.377446463
0.46400,"","",-1.248390436,-0.7817333937,-1.512016654,-10.96882439,1.823162556,-0.9370951056,10.18531431,32.12344131,44.56809748,6.35033747
0.46467,"","",-1.21776855,-0.7882426977,-1.510487795,-10.87324429,1.820514917,-0.9690842628,10.1568009,31.99386442,44.67334784,6.344904472
0.46533,"","",-1.187146544,-0.79692173,-1.507430196,-10.74754906,1.797480464,-0.9845143557,10.11472403,31.89823952,44.7126551,6.339471472
0.46600,"","",-1.157071471,-0.8056007624,-1.504372478,-10.62185478,1.774446011,-1.000320792,10.0990507,31.85143288,45.06448093,6.319083718
0.46667,"","",-1.126449585,-0.8142797947,-1.501314759,-10.49615955,1.751411557,-1.016127229,10.11128796,31.8357816,45.62932882,6.308217716
0.46733,"","",-1.096374393,-0.822958827,-1.49825716,-10.37046528,1.728377104,-1.031557322,10.12485142,31.81203483,46.00779051,6.304184973
0.46800,"","",-1.065752506,-0.8316378593,-1.495199442,-10.24542522,1.705607533,-1.047363758,10.14793944,31.79442101,46.08239672,6.282677012
0.46867,"","",-1.035677433,-0.8403168917,-1.492396593,-10.11973095,1.68257308,-1.062793732,10.17910526,31.79785546,45.98063747,6.265033764
0.46933,"","",-1.005055428,-0.848995924,-1.489338994,-9.994035721,1.659538627,-1.078600168,10.22389482,31.76871169,45.75358633,6.281276755
0.47000,"","",-0.9749803543,-0.8576749563,-1.486281276,-9.868341446,1.636504173,-1.094406605,10.25433725,31.72872488,45.65809813,6.298695963
0.47067,"","",-0.9443584085,-0.8663540483,-1.483223557,-9.742646217,1.61346972,-1.109836698,10.27736499,31.68873807,45.65079267,6.297127675
0.47133,"","",-0.9142833352,-0.8750330806,-1.480165958,-9.616951942,1.59070003,-1.125643134,10.29364114,31.6575827,45.58239287,6.267050138
0.47200,"","",-0.8836613894,-0.8837121129,-1.47710824,-9.491911888,1.567665577,-1.141073227,10.30310543,31.64536588,45.58730627,6.220729609
0.47267,"","",-0.8535863161,-0.8923911452,-1.474050641,-9.366217613,1.544631124,-1.156879663,10.28821576,31.64673966,45.46983704,6.15542158
0.47333,"","",-0.8229643703,-0.9010701776,-1.470992923,-9.240522385,1.521596789,-1.1726861,10.23667462,31.60665472,45.48147406,6.088937333
0.47400,"","",-0.7928892374,-0.9097492099,-1.467935324,-9.11482811,1.498562336,-1.188116193,10.16343194,31.47437933,45.4456579,6.016796051
0.47467,"","",-0.7622672915,-0.9184282422,-1.464877605,-8.989132881,1.475527883,-1.20392251,10.14034391,31.36246532,45.56092903,5.947399269
0.47533,"","",-0.7349262834,-0.9326866865,-1.462074757,-8.941997528,1.475792646,-1.244567633,10.22305088,31.39293379,45.77660176,5.850893497
0.47600,"","",-0.7070384622,-0.9466351271,-1.459017038,-8.894862175,1.475792646,-1.285212755,10.27790755,31.39156001,45.64452161,5.755731974
0.47667,"","",-0.679150641,-0.9608935714,-1.45621419,-8.847726822,1.475792646,-1.325857878,10.26356042,31.37664468,45.78830342,5.678157689
0.47733,"","",-0.6518096328,-0.9751519561,-1.45315659,-8.800591469,1.475792646,-1.366502881,10.17808048,31.36236719,46.37209384,5.578907415
0.47800,"","",-0.6239218116,-0.9891003966,-1.450353742,-8.753455162,1.475792646,-1.407524347,10.11430208,31.32910209,47.0522129,5.455236636
0.47867,"","",-0.5960339904,-1.003358841,-1.447296023,-8.706319809,1.475792646,-1.44816947,10.08777798,31.34465524,47.73582306,5.332910105
0.47933,"","",-0.5686929822,-1.017307281,-1.444493175,-8.659184456,1.475792646,-1.488814473,10.07614355,31.2944632,48.75225194,5.213328087
0.48000,"","",-0.540805161,-1.031565666,-1.441435456,-8.612049103,1.475792646,-1.529459596,10.06125388,31.2035484,49.85906166,5.11161335
0.48067,"","",-0.5134641528,-1.045514226,-1.438377857,-8.56491375,1.47605741,-1.570104718,10.08976729,31.07873067,50.23881632,5.037007614
0.48133,"","",-0.4855763018,-1.059772611,-1.435575008,-8.517778397,1.47605741,-1.610749841,10.12846837,30.96416724,50.40212246,4.962401874
0.48200,"","",-0.4576884806,-1.074030995,-1.43251729,-8.470643044,1.47605741,-1.651771188,10.16313054,30.9092651,50.59393933,4.893229138
0.48267,"","",-0.4303474724,-1.087979436,-1.429714441,-8.423506737,1.47605741,-1.69241631,10.21002997,30.95474703,50.71599872,4.818623402
0.48333,"","",-0.4024596512,-1.10223794,-1.426656723,-8.376371384,1.47605741,-1.733061433,10.24873104,30.86388129,51.76177875,4.727494619
0.48400,"","",-0.37457183,-1.11618638,-1.423853874,-8.329236031,1.47605741,-1.773706436,10.23323855,30.59668108,52.54443287,4.637990135
0.48467,"","",-0.3472308218,-1.130444765,-1.420796275,-8.282100677,1.47605741,-1.814351559,10.18651997,30.23179531,52.81298938,4.590493386
0.48533,"","",-0.3237175345,-1.149042726,-1.419267416,-8.203541756,1.450640082,-1.832416058,10.16011643,29.93746294,53.28364209,4.58371614
0.48600,"","",-0.300204277,-1.167640686,-1.417483807,-8.125637054,1.425222754,-1.850480556,10.16421561,29.78286362,53.73127937,4.606736375
0.48667,"","",-0.2766910195,-1.186238527,-1.415700078,-8.047078133,1.399805427,-1.868545055,10.1769954,29.6906241,53.64173898,4.64880012
0.48733,"","",-0.2537245452,-1.205146432,-1.414171338,-7.968518734,1.374388099,-1.886609554,10.18031092,29.59161381,53.594803,4.665099123
0.48800,"","",-0.2302112877,-1.223744392,-1.412387609,-7.890614033,1.348706126,-1.904673934,10.1917645,29.46679609,54.05187921,4.686607084
0.48867,"","",-0.2066980302,-1.242342353,-1.410604,-7.812055111,1.323288798,-1.922738433,10.17548835,29.34536375,54.58304442,4.758300284
0.48933,"","",-0.1831847578,-1.260940313,-1.409075141,-7.73415041,1.29787147,-1.940802932,10.19851609,29.27819572,54.69101009,4.839683269
0.49000,"","",-0.1596714854,-1.279538274,-1.407291532,-7.655591011,1.272454143,-1.958867431,10.27175877,29.24493061,54.80906117,4.89121276
0.49067,"","",-0.1361582279,-1.298136234,-1.405762672,-7.577686787,1.246772051,-1.97693193,10.31377535,29.2293284,54.61103792,4.912664712
0.49133,"","",-0.113191776,-1.317044139,-1.403979063,-7.499127388,1.221354723,-1.994996428,10.31377535,29.25170139,54.26457805,4.896197678
0.49200,"","",-0.08967851102,-1.33564198,-1.402195454,-7.421223164,1.195937395,-2.013060808,10.32595232,29.25577366,54.11943858,4.875641894
0.49267,"","",-0.06616523862,-1.354239941,-1.400666595,-7.342663765,1.170520186,-2.031125307,10.35850462,29.18252175,54.10043145,4.876762099
0.49333,"","",-0.04265197366,-1.372837901,-1.398882985,-7.264759541,1.144838095,-2.049189806,10.36802919,29.12688366,54.07411886,4.891492811
0.49400,"","",-0.01913870685,-1.391435862,-1.397099257,-7.186200142,1.119420767,-2.067254305,10.36863201,29.10382378,53.98593612,4.915689267
0.49467,"","",0.004374561366,-1.410033822,-1.395570517,-7.108295441,1.094003439,-2.085318804,10.35295868,29.07472908,54.11885673,4.941454013
0.49533,"","",0.02351326682,-1.428011775,-1.395060897,-7.033010006,1.070439458,-2.100749016,10.32372189,29.0333685,54.04612535,4.964474253
0.49600,"","",0.04319879413,-1.445989847,-1.394806027,-6.958378792,1.046875477,-2.116555214,10.2958113,28.9513342,54.03035075,4.983461749
0.49667,"","",0.0628843233,-1.4639678,-1.394551277,-6.88309288,1.023046732,-2.131985426,10.27881177,28.81910787,54.50514107,5.006313957
0.49733,"","",0.08202302456,-1.481945872,-1.394296408,-6.808461666,0.9994828105,-2.147791862,10.28345348,28.66789394,54.77369759,5.010122657
0.49800,"","",0.1017085537,-1.499923825,-1.393786788,-6.733175755,0.9759188294,-2.163598299,10.29972964,28.49499392,54.66030131,5.001777121
0.49867,"","",0.1213940755,-1.517901897,-1.393532038,-6.65854454,0.9523548484,-2.179028273,10.30105584,28.27597414,54.63534638,5.005641833
0.49933,"","",0.1410796046,-1.53587985,-1.393277168,-6.583258629,0.9287909269,-2.194834709,10.27392892,28.05558058,54.41508349,5.008106286
0.50000,"","",0.1602183133,-1.553857803,-1.393022418,-6.508627415,0.904962182,-2.210264921,10.24348649,27.88130677,54.67361924,4.997016243
0.50067,"","",0.1799038351,-1.571835876,-1.392512798,-6.433996201,0.881398201,-2.226071358,10.2307067,27.70840674,55.12338997,4.995447955
0.50133,"","",0.1995893568,-1.589813828,-1.392258048,-6.358710289,0.8578342795,-2.241501331,10.18127542,27.49208545,55.21370617,5.003345408
0.50200,"","",0.2192748934,-1.607791901,-1.392003179,-6.284079075,0.8342702985,-2.257307768,10.10803274,27.25952412,55.20232775,5.007210121
0.50267,"","",0.2384135872,-1.626079798,-1.391748428,-6.208793163,0.8104415536,-2.272737741,10.0185139,27.02966129,55.20911601,5.011074831
0.50333,"","",0.2580991089,-1.64405787,-1.391238809,-6.134161949,0.7868775725,-2.288544178,9.912718918,26.81741228,55.38489963,5.013539286
0.50400,"","",0.2777846456,-1.662035823,-1.390983939,-6.058876038,0.7633136511,-2.304350615,9.876067442,26.63097072,55.35910425,4.995728007
0.50467,"","",0.2969233394,-1.680013895,-1.390729189,-5.984244823,0.73974967,-2.319780827,9.927608589,26.46822685,55.53191397,4.957528973
0.50533,"","",0.3144215941,-1.696752071,-1.392767668,-5.910923004,0.7251876593,-2.3393507,10.00760286,26.35837351,55.86150019,4.905775443
0.50600,"","",0.3313730359,-1.713490129,-1.394806027,-5.836946487,0.7108904123,-2.358544111,10.09573521,26.35091585,55.97547831,4.863487654
0.50667,"","",0.3488712609,-1.730228305,-1.396844506,-5.763624668,0.6965931654,-2.378113985,10.11261418,26.12640094,56.14912848,4.837498868
0.50733,"","",0.3658227026,-1.746966481,-1.398882985,-5.690302849,0.6820311546,-2.397307396,10.11394039,25.78796042,55.88929975,4.80064408
0.50800,"","",0.3833209276,-1.764014602,-1.400921345,-5.616325855,0.6677339673,-2.41687727,10.09905072,25.40472486,55.88794209,4.747546299
0.50867,"","",0.4002723694,-1.780752778,-1.402705073,-5.543004036,0.6534367204,-2.436070919,10.00139381,25.051369,55.90507439,4.708003016
0.50933,"","",0.4177706242,-1.797490835,-1.404743433,-5.469682217,0.6388747096,-2.455640793,9.936289202,24.82278183,55.72011046,4.682014232
0.51000,"","",0.4347220361,-1.814229012,-1.406781912,-5.396360397,0.6245774627,-2.474834204,9.97016771,24.70409704,55.7376953,4.651992704
0.51067,"","",0.4516734481,-1.830967188,-1.408820391,-5.322383881,0.6102802157,-2.494404078,10.02442155,24.64306196,55.62106653,4.613793669
0.51133,"","",0.4691717029,-1.848015308,-1.41085875,-5.249062061,0.595718205,-2.513597727,10.05697385,24.63427958,55.88070132,4.56747314
0.51200,"","",0.4861231446,-1.864753366,-1.412897229,-5.175740242,0.5814210176,-2.533167362,10.07734918,24.56446212,56.44412694,4.522496855
0.51267,"","",0.5036213994,-1.881491542,-1.414935708,-5.101763725,0.5668590069,-2.552361012,10.05974683,24.50955998,56.64408971,4.492419314
0.51333,"","",0.5205727816,-1.898229718,-1.416974187,-5.028441429,0.5525617599,-2.571930885,10.08880277,24.47227167,56.572716,4.470463273
0.51400,"","",0.5380710363,-1.914967895,-1.419012547,-4.95511961,0.538264513,-2.591124296,10.11725589,24.40922498,56.477745,4.445818735
0.51467,"","",0.5550224781,-1.931705952,-1.421051025,-4.881143093,0.5237025023,-2.61069417,10.14028364,24.29466154,56.94897958,4.422574454
0.51533,"","",0.5719739199,-1.948134184,-1.422579885,-4.816331863,0.5231729746,-2.632522106,10.14160984,24.13937534,57.35097388,4.400674421
0.51600,"","",0.588925302,-1.964562416,-1.424108744,-4.751520634,0.5226434469,-2.654350042,10.18441009,23.98139064,57.80074463,4.369252634
0.51667,"","",0.6053299308,-1.980990529,-1.425892353,-4.686709404,0.5221139193,-2.676177979,10.31401649,23.84847742,58.79499849,4.3256206
0.51733,"","",0.6222813725,-1.997418761,-1.427421212,-4.621897697,0.5215843916,-2.698005915,10.39075553,23.68435977,59.35053677,4.283332814
0.51800,"","",0.6392327547,-2.01353693,-1.429204822,-4.557086468,0.5210548639,-2.719833851,10.36694413,23.49379686,59.24418736,4.251967036
0.51867,"","",0.6556373835,-2.029965162,-1.430733681,-4.492275238,0.5205253363,-2.741661787,10.26036547,23.33988444,59.09174242,4.234099747
0.51933,"","",0.6725888252,-2.046393394,-1.43226254,-4.427464008,0.5199958086,-2.763489723,10.13419515,23.21040567,58.88770672,4.21897696
0.52000,"","",0.6895402074,-2.062821388,-1.434046149,-4.361998081,0.5194662809,-2.785317659,10.0954338,23.102613,58.54402679,4.214720177
0.52067,"","",0.7059448361,-2.078939676,-1.435575008,-4.297186852,0.5189367533,-2.807145357,10.11574885,23.04771086,58.43231142,4.206374641
0.52133,"","",0.7228962779,-2.095367908,-1.437103748,-4.232375145,0.5184072256,-2.828973293,10.11906436,23.03210865,58.43638438,4.174952853
0.52200,"","",0.7398477197,-2.111796141,-1.438887477,-4.167563915,0.5178776979,-2.850801229,10.10140172,23.03956631,58.23693882,4.14756381
0.52267,"","",0.7562522888,-2.128224134,-1.440416217,-4.102752686,0.5173481703,-2.872629166,10.04847409,23.04300076,58.14248503,4.14599552
0.52333,"","",0.7732037306,-2.144652367,-1.441945076,-4.037941456,0.5168186426,-2.894457102,9.986082179,23.03966444,58.30585583,4.140394489
0.52400,"","",0.7901551723,-2.160770655,-1.443728685,-3.973129988,0.516289115,-2.916285038,9.933154543,22.98750986,58.32945311,4.119838703
0.52467,"","",0.8065597415,-2.177198887,-1.445257545,-3.908318758,0.5157595873,-2.938112974,9.872149111,22.89056024,58.02967059,4.119614662
0.52533,"","",0.8218707442,-2.189597368,-1.446531653,-3.849399328,0.5189367533,-2.95881176,9.800232633,22.79091213,57.71230326,4.138378117
0.52600,"","",0.8371816874,-2.201686144,-1.447805643,-3.790479898,0.5221139193,-2.979887009,9.762857765,22.7170224,57.81813547,4.138154078
0.52667,"","",0.8524926305,-2.213774681,-1.448824883,-3.731560707,0.5255558491,-3.000586033,9.766173278,22.68581796,57.8669463,4.112165291
0.52733,"","",0.8678036332,-2.226173401,-1.450098872,-3.672641277,0.5287330151,-3.021661282,9.762737201,22.66275808,57.90004715,4.086400546
0.52800,"","",0.8831145763,-2.238261938,-1.451372862,-3.613721848,0.531910181,-3.04273653,9.783715353,22.6566742,57.95487044,4.063156266
0.52867,"","",0.8978787065,-2.250660658,-1.452646971,-3.554802418,0.535087347,-3.063435316,9.818256962,22.61055444,58.07886932,4.037391522
0.52933,"","",0.9131897092,-2.262749434,-1.45366621,-3.495882988,0.538264513,-3.084510565,9.806622528,22.45256974,58.47006705,4.027925781
0.53000,"","",0.9285006523,-2.275147915,-1.4549402,-3.436963797,0.5417064428,-3.105585814,9.783534505,22.23217617,58.82409101,4.015715535
0.53067,"","",0.9438115954,-2.287236691,-1.45621419,-3.378044367,0.5448836088,-3.126284599,9.78082181,21.98872272,58.93315573,3.991295037
0.53133,"","",0.9591225982,-2.299635172,-1.457488298,-3.319124937,0.5480607748,-3.147359848,9.776782915,21.72834234,58.91899736,3.981829294
0.53200,"","",0.9744335413,-2.311723948,-1.458507419,-3.260205507,0.5512379408,-3.168058872,9.779495607,21.50049111,58.99172871,3.996952079
0.53267,"","",0.9891976714,-2.323812485,-1.459781528,-3.201286316,0.5544151068,-3.189134121,9.761832968,21.30516904,59.12464932,4.01481937
0.53333,"","",1.004508615,-2.336211205,-1.461055517,-3.142366886,0.5578570366,-3.21020937,9.7822083,21.12279974,59.2060438,4.010786627
0.53400,"","",1.019819617,-2.348299742,-1.462329507,-3.083447456,0.5610342026,-3.230908155,9.854064494,20.95397199,59.15723297,4.026861588
0.53467,"","",1.03513062,-2.360698462,-1.463348746,-3.024528027,0.5642113686,-3.251983404,9.898854056,20.74986754,59.46567858,4.043104579
0.53533,"","",1.049894691,-2.369997501,-1.461565137,-2.980011225,0.5705657005,-3.279080153,9.893428675,20.53217247,60.05489958,4.081079572
0.53600,"","",1.06465888,-2.378986359,-1.459781528,-2.934839725,0.5771847963,-3.306553125,9.889329496,20.32262196,60.31809013,4.131264815
0.53667,"","",1.07942307,-2.388285398,-1.457743049,-2.889668226,0.5835391283,-3.333649874,9.903616339,20.10497595,60.06175244,4.162462561
0.53733,"","",1.09418714,-2.397584438,-1.455959439,-2.844496727,0.5901581645,-3.361123085,9.850085883,19.87241462,59.77367159,4.182850316
0.53800,"","",1.10895133,-2.40688324,-1.454175711,-2.799325228,0.5965124965,-3.388219595,9.82567166,19.62356419,60.09866762,4.188059275
0.53867,"","",1.123715401,-2.415872335,-1.452392101,-2.75415349,0.6031315923,-3.415316343,9.865035834,19.34684564,60.29746666,4.193268235
0.53933,"","",1.13847959,-2.425171375,-1.450353742,-2.709636688,0.6094859242,-3.442789555,9.958593565,19.06541701,60.09078028,4.18357845
0.54000,"","",1.15324378,-2.434470415,-1.448570013,-2.664465189,0.61610502,-3.469886303,10.0175494,18.85724027,59.97356965,4.149468168
0.54067,"","",1.168007851,-2.443769217,-1.446786404,-2.61929369,0.622459352,-3.497359276,10.00730146,18.83285567,60.27199453,4.097714638
0.54133,"","",1.18277204,-2.453068256,-1.445002794,-2.57412219,0.6290784478,-3.524456024,9.983490043,18.6775204,60.47680605,4.038007642
0.54200,"","",1.19753623,-2.462057352,-1.442964315,-2.528950691,0.6354327798,-3.551928997,9.988192039,18.40143969,60.21911075,3.9878224
0.54267,"","",1.212300301,-2.471356153,-1.441180706,-2.484433889,0.6420518756,-3.579025745,9.923690251,18.17692478,60.23947554,3.957968902
0.54333,"","",1.22706449,-2.480655193,-1.439397097,-2.439262152,0.6484062076,-3.606122494,9.903375199,18.05956473,60.01352342,3.95231186
0.54400,"","",1.241828561,-2.489954233,-1.437358618,-2.394090652,0.6550253034,-3.633595705,9.98204326,17.94490316,60.14424595,3.938533323
0.54467,"","",1.256592751,-2.49894309,-1.435575008,-2.348919153,0.6613796353,-3.660692215,10.07698748,17.70684672,60.69952562,3.949399324
0.54533,"","",1.270810127,-2.505762339,-1.43251729,-2.308984995,0.6473471522,-3.684401989,10.20792008,17.35280397,60.60778712,3.965922366
0.54600,"","",1.284480572,-2.512271643,-1.429459572,-2.268396139,0.6333146691,-3.708111525,10.36326691,17.07608544,61.16933793,3.967266613
0.54667,"","",1.298151135,-2.518780947,-1.426401973,-2.228461742,0.6190174222,-3.731444836,10.52000023,16.99473804,61.62919405,3.942846116
0.54733,"","",1.312368393,-2.525290251,-1.423089504,-2.188527584,0.6049849391,-3.75515461,10.60210437,17.0381593,61.50765187,3.937189075
0.54800,"","",1.326038957,-2.531799555,-1.420031786,-2.147938728,0.5906876922,-3.778864145,10.59878886,17.07009968,61.64251196,3.936965034
0.54867,"","",1.340256214,-2.538308859,-1.416974187,-2.108004332,0.5766552687,-3.802573681,10.58329637,17.08844946,62.12758165,3.953039994
0.54933,"","",1.353926778,-2.545128107,-1.413916469,-2.067415476,0.5626227856,-3.825906992,10.58190989,17.10135318,63.2718238,3.963849985
0.55000,"","",1.367597222,-2.551637411,-1.41085875,-2.027481318,0.5483255386,-3.849616766,10.60222493,17.08040303,63.98750039,3.945086529
0.55067,"","",1.381814599,-2.558146715,-1.407546282,-1.98754704,0.5342930555,-3.873326302,10.64972718,16.99567025,64.05751644,3.941221816
0.55133,"","",1.395485044,-2.564655781,-1.404488683,-1.946958065,0.5199958086,-3.897036076,10.61446219,16.92653967,64.24823423,3.931924104
0.55200,"","",1.40970242,-2.571165085,-1.401430964,-1.907023907,0.5059633255,-3.920369387,10.53308143,16.88719069,64.30299286,3.933492393
0.55267,"","",1.423372865,-2.577674389,-1.398373365,-1.866434932,0.4919308722,-3.944078922,10.50052913,16.79838562,65.30590986,3.936236899
0.55333,"","",1.437043428,-2.584493637,-1.395060897,-1.826500773,0.4776336253,-3.967788458,10.53440764,16.69873751,66.57550857,3.907727649
0.55400,"","",1.451260686,-2.591002941,-1.392003179,-1.786566496,0.463601172,-3.991121769,10.61771742,16.65742599,67.39119888,3.88448337
0.55467,"","",1.46493125,-2.597512245,-1.38894558,-1.745977521,0.449303925,-4.014831543,10.61964645,16.65139117,68.02250712,3.893949112
0.55533,"","",1.479148507,-2.605881214,-1.38741672,-1.719791174,0.4236218631,-4.028379917,10.59173586,16.58971826,68.75550996,3.895517401
0.55600,"","",1.493365884,-2.613940477,-1.385887861,-1.69295013,0.3976750076,-4.041928291,10.61807911,16.44733577,69.43912013,3.87949845
0.55667,"","",1.507583261,-2.622309446,-1.384359002,-1.666109085,0.3719929457,-4.055476665,10.69132179,16.21811076,69.62227386,3.870200738
0.55733,"","",1.521800518,-2.63036871,-1.382830143,-1.639922738,0.3460460901,-4.06902504,10.72658679,15.96518805,70.0286644,3.87042478
0.55800,"","",1.536017895,-2.638737679,-1.381301403,-1.613081694,0.3200992644,-4.082573414,10.72526059,15.78414347,70.84597098,3.871993069
0.55867,"","",1.550235152,-2.647106647,-1.379772544,-1.586240649,0.2944171727,-4.095745087,10.72194507,15.62341121,71.85321955,3.883083112
0.55933,"","",1.564452529,-2.655165911,-1.378243685,-1.560054183,0.2684703469,-4.109293461,10.72134225,15.39624687,72.97580388,3.89148466
0.56000,"","",1.578669786,-2.66353488,-1.376714826,-1.533213139,0.2427882701,-4.122841835,10.70373989,15.14469795,73.67783933,3.879498454
0.56067,"","",1.592887163,-2.671904087,-1.375185966,-1.506372094,0.2168414295,-4.136390209,10.70512638,14.92567816,73.85633825,3.874345505
0.56133,"","",1.60710454,-2.679963112,-1.373657227,-1.480185747,0.1908946037,-4.149938583,10.71465095,14.80223421,74.0538443,3.893557043
0.56200,"","",1.621321797,-2.688332081,-1.372128367,-1.453344703,0.1652125269,-4.163486958,10.74449056,14.66392399,74.00858923,3.914168839
0.56267,"","",1.635539174,-2.696391344,-1.370599508,-1.426503658,0.1392656863,-4.177035332,10.81640704,14.17834184,74.51318326,3.930635873
0.56333,"","",1.649756432,-2.704760313,-1.369070649,-1.400317192,0.1135836095,-4.190583706,10.94179369,13.58290635,75.05165395,3.934668616
0.56400,"","",1.663973808,-2.71312952,-1.367541909,-1.373476148,0.08763676882,-4.203755856,11.07803112,13.17327458,75.06581231,3.94262208
0.56467,"","",1.678191066,-2.721188545,-1.36601305,-1.346635103,0.06195469573,-4.21730423,11.16272739,12.98472327,75.18787169,3.943742287
0.56533,"","",1.694595695,-2.731417418,-1.36652267,-1.332232594,0.03600785881,-4.22445488,11.1287886,12.87894222,75.57932804,3.94777503
0.56600,"","",1.71045351,-2.74164629,-1.36703229,-1.317175388,0.01032578293,-4.231228828,11.17761705,12.75549826,75.96263847,3.969731073
0.56667,"","",1.726311326,-2.751875162,-1.367541909,-1.302118301,-0.01535629202,-4.238003254,11.29016363,12.61036822,76.00007087,3.97813262
0.56733,"","",1.742715836,-2.762104034,-1.36805141,-1.287061095,-0.0410383679,-4.244777203,11.39191972,12.482852,75.98869244,3.994599651
0.56800,"","",1.758573651,-2.772022963,-1.368561029,-1.272658587,-0.06698520482,-4.251551628,11.436649,12.38654021,76.13738767,4.012466942
0.56867,"","",1.774431467,-2.782251835,-1.369070649,-1.25760138,-0.09266728163,-4.258701801,11.46377592,12.3132883,76.11618244,4.023500975
0.56933,"","",1.790836096,-2.792480707,-1.369835138,-1.242544174,-0.1183493584,-4.265476227,11.48143856,12.3078913,76.05844989,4.025069264
0.57000,"","",1.806693792,-2.802709579,-1.370344758,-1.227487087,-0.1440314353,-4.272250175,11.46648861,12.18788181,75.4961233,4.026693563
0.57067,"","",1.822551608,-2.812938452,-1.370854378,-1.213084579,-0.169978261,-4.279024601,11.47522951,11.95124821,74.94136078,4.030782316
0.57133,"","",1.838956237,-2.823167324,-1.371363878,-1.198027372,-0.1956603378,-4.286175251,11.54636232,11.6223751,75.19769843,4.025405326
0.57200,"","",1.854814053,-2.833396196,-1.371873498,-1.182970166,-0.2213424146,-4.2929492,11.6636109,11.23786389,74.83093843,4.010506582
0.57267,"","",1.870671749,-2.843625069,-1.372383118,-1.16791296,-0.2470244914,-4.299723625,11.74698097,10.95780901,73.89370597,4.007762077
0.57333,"","",1.887076378,-2.853543758,-1.372892737,-1.153510451,-0.2729713321,-4.306497574,11.75162269,10.93955737,73.34165878,4.010674613
0.57400,"","",1.902934194,-2.863772631,-1.373402357,-1.138453364,-0.298653394,-4.313271999,11.80666019,10.87445,73.53289376,4.021764656
0.57467,"","",1.919338822,-2.874001503,-1.373911977,-1.123396158,-0.3243354857,-4.320422173,11.90775318,10.71980162,74.20564273,4.061307938
0.57533,"","",1.938477516,-2.886400223,-1.375440836,-1.117504239,-0.3516061306,-4.320798874,11.99859822,10.57737007,74.33992099,4.117150224
0.57600,"","",1.958163023,-2.898798943,-1.376969695,-1.11161232,-0.3791415691,-4.321175098,12.1071059,10.44848007,74.43431013,4.160782263
0.57667,"","",1.977301717,-2.911507368,-1.378243685,-1.105065703,-0.406412214,-4.321927547,12.21832627,10.32233764,75.25084091,4.196292801
0.57733,"","",1.996987224,-2.923906088,-1.379772544,-1.099173784,-0.4339476228,-4.322304249,12.23050324,10.23824268,75.86256014,4.188171305
0.57800,"","",2.016125917,-2.936304808,-1.381301403,-1.093281746,-0.4612182975,-4.322680473,12.15044869,10.21243524,76.315628,4.196068758
0.57867,"","",2.035811424,-2.948703289,-1.382830143,-1.086735249,-0.4884889424,-4.323056698,12.07316711,10.18800158,76.01448784,4.19993347
0.57933,"","",2.054950237,-2.961102009,-1.384359002,-1.08084321,-0.5160243511,-4.323809624,11.98768717,10.18530308,76.05385976,4.21236776
0.58000,"","",2.074635744,-2.97350049,-1.385887861,-1.074951291,-0.5432950258,-4.324185848,11.92722428,10.19958058,76.50149705,4.228890802
0.58067,"","",2.093774319,-2.98589921,-1.38741672,-1.068404675,-0.5708304644,-4.324562073,11.85808078,10.18132894,76.61541056,4.237068308
0.58133,"","",2.113460064,-2.99829793,-1.38894558,-1.062512755,-0.5981010795,-4.325314999,11.85675457,10.11690846,75.73106187,4.233035566
0.58200,"","",2.132598639,-3.011006355,-1.390219569,-1.055966139,-0.6253717542,-4.325691223,11.8133515,9.971140592,75.56775573,4.23169132
0.58267,"","",2.152284145,-3.023405075,-1.391748428,-1.05007422,-0.6529071927,-4.326067448,11.79900438,9.80501134,75.53737018,4.214048071
0.58333,"","",2.171422958,-3.035803795,-1.393277168,-1.044182301,-0.6801778078,-4.326820374,11.84301027,9.716206272,75.40503144,4.205926576
0.58400,"","",2.191108465,-3.048202276,-1.394806027,-1.037635684,-0.7074484825,-4.327196598,11.83004962,9.716206272,74.82369774,4.231691322
0.58467,"","",2.21024704,-3.060600996,-1.396334887,-1.031743765,-0.7349839211,-4.327572823,11.75331058,9.573774727,74.17803718,4.260200572
0.58533,"","",2.232120037,-3.07020998,-1.400666595,-1.028470516,-0.7704622149,-4.320798874,11.69224487,9.333706662,73.90540772,4.280532317
0.58600,"","",2.253992796,-3.079508781,-1.405253053,-1.02454257,-0.8059405684,-4.313648224,11.6813941,9.134312313,73.93249611,4.303776597
0.58667,"","",2.275865555,-3.088807821,-1.409584761,-1.021269202,-0.8414189219,-4.306873798,11.68814569,9.020386697,74.23770924,4.337942888
0.58733,"","",2.29719162,-3.098416805,-1.413916469,-1.017341256,-0.8768972158,-4.299723625,11.74239953,8.930845682,74.26706037,4.366620169
0.58800,"","",2.319064379,-3.107715607,-1.418502927,-1.014068007,-0.9123755693,-4.2929492,11.80207876,8.837281454,74.38853789,4.395297451
0.58867,"","",2.340937138,-3.117324591,-1.422834635,-1.010140061,-0.9478539228,-4.28579855,11.83601755,8.686705352,74.85595812,4.421062197
0.58933,"","",2.362809896,-3.126623631,-1.427166343,-1.006866693,-0.9830674529,-4.279024601,11.92553638,8.476467949,75.06426074,4.453604188
0.59000,"","",2.384135962,-3.13592267,-1.43175292,-1.002938747,-1.018545747,-4.271873951,12.08015982,8.308278023,74.98558156,4.49858047
0.59067,"","",2.40600872,-3.145531416,-1.436084509,-0.9996654391,-1.0540241,-4.265100002,12.11331495,8.159075707,74.87354295,4.538179764
0.59133,"","",2.427881479,-3.154830456,-1.440416217,-0.995737493,-1.089502454,-4.257949352,12.11874033,7.928476919,74.28270569,4.577499006
0.59200,"","",2.449754477,-3.164129496,-1.445002794,-0.9924641848,-1.124980807,-4.250798702,12.1960219,7.716865741,74.22355084,4.606008257
0.59267,"","",2.471080303,-3.17373848,-1.449334502,-0.9891908765,-1.160459161,-4.244024754,12.27878915,7.65715537,74.55177938,4.630652795
0.59333,"","",2.492953062,-3.183037281,-1.45366621,-0.9852629304,-1.195937395,-4.236874104,12.31815333,7.666035877,74.68334236,4.656641581
0.59400,"","",2.514826059,-3.192646265,-1.458252668,-0.9819896221,-1.231415749,-4.230099678,12.35070563,7.605736749,74.60059023,4.68671912
0.59467,"","",2.536698818,-3.201945305,-1.462584376,-0.978061676,-1.266894102,-4.222949505,12.4226221,7.469487207,74.37625439,4.701617863
0.59533,"","",2.561305761,-3.20690465,-1.467935324,-0.9846082926,-1.31163919,-4.208648205,12.46331248,7.316948566,74.27999039,4.704306359
0.59600,"","",2.586459398,-3.212174177,-1.473031402,-0.9911548495,-1.356648922,-4.194347382,12.44703633,7.187420735,74.50109372,4.72603836
0.59667,"","",2.611066341,-3.217133522,-1.478382349,-0.9970468283,-1.40139401,-4.179669857,12.47006407,7.074231071,74.7878169,4.742505394
0.59733,"","",2.636219978,-3.222403049,-1.483733177,-1.003593445,-1.446403861,-4.165369034,12.52160522,6.988173569,74.62289452,4.742729435
0.59800,"","",2.660826921,-3.227362394,-1.488829374,-1.010140061,-1.491148949,-4.151067734,12.51750604,6.944163547,74.03205723,4.740208971
0.59867,"","",2.685980797,-3.232631922,-1.494180202,-1.016686559,-1.535894036,-4.136390209,12.51069417,6.961139547,74.24035985,4.756732015
0.59933,"","",2.710587502,-3.237591267,-1.49953115,-1.022578597,-1.580903769,-4.122089386,12.54595916,7.034391461,73.95499431,4.775719511
0.60000,"","",2.735741377,-3.242860794,-1.504627228,-1.029125094,-1.625648856,-4.107411861,12.53372191,7.052005283,73.9503395,4.798795761
0.60067,"","",2.76034832,-3.247820139,-1.509978175,-1.035671711,-1.670658708,-4.093111038,12.53022555,7.075065158,73.89338277,4.831337755
0.60133,"","",2.784955025,-3.253089666,-1.515329123,-1.042218328,-1.715403795,-4.078809738,12.5139494,7.134775529,73.88989166,4.859847004
0.60200,"","",2.8101089,-3.258049011,-1.5204252,-1.048110247,-1.760413527,-4.064132214,12.52612637,7.146354529,74.01389055,4.89126879
0.60267,"","",2.834715843,-3.263008595,-1.525776148,-1.054656863,-1.805158615,-4.04983139,12.56066798,7.093414936,74.16769314,4.899670336
0.60333,"","",2.85986948,-3.268277884,-1.531127095,-1.06120348,-1.849903703,-4.035530567,12.66103758,7.054115014,74.38659837,4.895805624
0.60400,"","",2.884476423,-3.273237467,-1.536223173,-1.067750096,-1.894913554,-4.020853043,12.71933031,7.002549204,74.19452292,4.887852159
0.60467,"","",2.90963006,-3.278506756,-1.541574121,-1.074296713,-1.939658523,-4.006551743,12.73970565,6.944212615,74.0859754,4.875865952
0.60533,"","",2.938064814,-3.283776283,-1.545905828,-1.090008497,-1.990757942,-3.983594894,12.73428026,6.885876031,74.12398967,4.866400207
0.60600,"","",2.966499329,-3.289355516,-1.550492287,-1.105065703,-2.041592598,-3.960638046,12.72421316,6.837057781,74.13704899,4.859622959
0.60667,"","",2.995481014,-3.294934988,-1.554823995,-1.120777488,-2.092691898,-3.93768096,12.82530615,6.876406765,74.44083981,4.83111371
0.60733,"","",3.023915529,-3.300204277,-1.559410453,-1.136489391,-2.143526554,-3.914724112,12.96497965,6.90010447,74.66194313,4.812126213
0.60800,"","",3.052350283,-3.305783749,-1.563742161,-1.152201176,-2.194625854,-3.891767263,13.04636041,6.809827489,74.91834542,4.817559213
0.60867,"","",3.080784798,-3.311053276,-1.568328738,-1.16791296,-2.24546051,-3.868810177,13.10061425,6.718225799,74.61940337,4.809381708
0.60933,"","",3.109766245,-3.316632509,-1.572660446,-1.183624864,-2.296560049,-3.845853329,13.12906738,6.694479038,74.56322244,4.780928468
0.61000,"","",3.138200998,-3.321902037,-1.577246904,-1.199336648,-2.347659349,-3.822896242,13.10736584,6.653069384,74.58080728,4.770062468
0.61067,"","",3.166635513,-3.32748127,-1.581578612,-1.215048552,-2.398494005,-3.800315619,13.12557102,6.665286215,74.31496607,4.787649706
0.61133,"","",3.195070267,-3.333060741,-1.586165071,-1.230760336,-2.449593306,-3.77735877,13.18042768,6.680201541,74.40909661,4.796947417
0.61200,"","",3.224051714,-3.338330269,-1.590496778,-1.24647212,-2.500427961,-3.754401922,13.21490901,6.681575322,74.2496048,4.81705512
0.61267,"","",3.252486467,-3.343909502,-1.595083237,-1.262184024,-2.551527262,-3.731444836,13.22364991,6.679563716,73.87392308,4.849373072
0.61333,"","",3.280920982,-3.349179029,-1.599414945,-1.277895808,-2.602361917,-3.708487988,13.24052888,6.686334489,73.59450535,4.865672073
0.61400,"","",3.309355736,-3.354758263,-1.604001522,-1.293607712,-2.653461456,-3.685530901,13.27639669,6.698551318,73.81418639,4.868416578
0.61467,"","",3.337790251,-3.36002779,-1.60833323,-1.309319496,-2.704296112,-3.662574053,13.32311528,6.706058045,74.18314452,4.857550576
0.61533,"","",3.370052814,-3.363437414,-1.61037159,-1.339433908,-2.75724864,-3.629455805,13.37393304,6.705420219,74.36707405,4.86163933
0.61600,"","",3.40231514,-3.366537094,-1.612155318,-1.369548202,-2.809936762,-3.596337557,13.39967347,6.695901886,74.24850576,4.901014583
0.61667,"","",3.434030771,-3.369946718,-1.613938928,-1.399662614,-2.862889528,-3.563219309,13.42137501,6.69320339,73.97529447,4.936301081
0.61733,"","",3.466293097,-3.373046398,-1.615722537,-1.42912221,-2.915577412,-3.530477524,13.41998852,6.673577962,73.90883417,4.949855577
0.61800,"","",3.498008728,-3.376456022,-1.617506146,-1.459236622,-2.968265295,-3.497359276,13.3841207,6.691191783,74.45137779,4.967274785
0.61867,"","",3.530271053,-3.379555702,-1.619544625,-1.489350915,-3.021218061,-3.464241028,13.3428275,6.676227394,74.49210735,5.005249776
0.61933,"","",3.561986685,-3.382965326,-1.621328235,-1.519465327,-3.073905945,-3.43112278,13.33872832,6.657239789,74.74301439,5.03784778
0.62000,"","",3.59424901,-3.386064768,-1.623111844,-1.54957962,-3.126858711,-3.398004532,13.33330294,6.648359284,74.81626295,5.062268277
0.62067,"","",3.625964642,-3.389474392,-1.624895573,-1.579694033,-3.179546833,-3.364886284,13.34083819,6.714104473,74.82977482,5.102987773
0.62133,"","",3.658226967,-3.392574072,-1.626679182,-1.609153628,-3.232234716,-3.331768274,13.37278767,6.840246917,74.83979558,5.162694771
0.62200,"","",3.690489292,-3.395983696,-1.628717661,-1.639268041,-3.285187483,-3.298650026,13.41154903,7.007063054,74.96101452,5.218313015
0.62267,"","",3.722204924,-3.399083376,-1.63050127,-1.669382334,-3.337875366,-3.265908003,13.45567548,7.165734646,75.04454245,5.271186754
0.62333,"","",3.754467249,-3.402493,-1.63228488,-1.699496746,-3.390828133,-3.232789755,13.46049805,7.23358957,75.31174131,5.323892459
0.62400,"","",3.78618288,-3.40559268,-1.634068489,-1.729611039,-3.443516016,-3.199671745,13.43005561,7.243058844,75.29544949,5.382255206
0.62467,"","",3.818445206,-3.409002304,-1.635852218,-1.759725451,-3.496204138,-3.166553497,13.41046395,7.224071239,75.30689256,5.4093642
0.62533,"","",3.853988647,-3.414581776,-1.636361837,-1.806206226,-3.549421549,-3.124403,13.37188344,7.242421018,75.35628524,5.440561944
0.62600,"","",3.888985157,-3.420161009,-1.636616588,-1.85268712,-3.602639198,-3.082628965,13.29128634,7.46693592,75.45448875,5.477136681
0.62667,"","",3.92452836,-3.42574048,-1.636871457,-1.899168015,-3.655856609,-3.040478468,13.24655707,7.721281472,75.17507104,5.490691177
0.62733,"","",3.960071564,-3.431319952,-1.637126207,-1.945648789,-3.70907402,-2.998327971,13.30551291,7.886135066,74.60757244,5.496124177
0.62800,"","",3.995615005,-3.436899185,-1.637381077,-1.992129683,-3.76229167,-2.956177473,13.38749648,7.98990452,73.9437452,5.513767426
0.62867,"","",4.031158447,-3.442788601,-1.637635827,-2.038610458,-3.815509081,-2.914403439,13.39424807,8.048977058,73.44593943,5.531410674
0.62933,"","",4.066154957,-3.448368073,-1.637890577,-2.085091352,-3.868726492,-2.872252941,13.48997595,8.083566875,72.69994192,5.554486923
0.63000,"","",4.101697922,-3.453947306,-1.638145447,-2.131572247,-3.921944141,-2.830102444,13.66087555,8.104664211,71.75585649,5.586804875
0.63067,"","",4.137241364,-3.459526777,-1.638400197,-2.178052902,-3.975161552,-2.788328409,13.76667053,8.171145353,71.3245757,5.611001331
0.63133,"","",4.172784805,-3.46510601,-1.638655066,-2.224533796,-4.028378963,-2.746177912,13.75581976,8.306070171,71.44256214,5.625732044
0.63200,"","",4.207781315,-3.470685482,-1.638909817,-2.27101469,-4.081596375,-2.704027414,13.65141127,8.332466372,71.81009791,5.641750994
0.63267,"","",4.243324757,-3.476264954,-1.639164686,-2.317495584,-4.134814262,-2.66225338,13.53398184,8.290418892,72.8428186,5.680846192
0.63333,"","",4.278867722,-3.481844187,-1.639419436,-2.363976479,-4.188031673,-2.620102882,13.42143527,8.293755214,73.0115553,5.724254185
0.63400,"","",4.314411163,-3.487733603,-1.639674306,-2.410457134,-4.241249084,-2.577952385,13.50414223,8.398800325,72.74894659,5.749794889
0.63467,"","",4.349954605,-3.493313074,-1.639929056,-2.456938028,-4.294466496,-2.535801888,13.73875994,8.514737545,73.08124813,5.752315353
0.63533,"","",4.388778687,-3.503851891,-1.638909817,-2.519130707,-4.339476109,-2.492522478,13.88934447,8.619831711,74.1120939,5.733103815
0.63600,"","",4.4281497,-3.514700651,-1.637635827,-2.581323385,-4.384750843,-2.448866606,13.8812064,8.689649173,74.34405849,5.692216287
0.63667,"","",4.466973782,-3.525549412,-1.636361837,-2.642861366,-4.430025578,-2.405586958,13.86902942,8.713395941,74.39209352,5.656705749
0.63733,"","",4.50579834,-3.536088228,-1.635087729,-2.705054045,-4.475035191,-2.361931324,13.8446152,8.756081251,74.70079774,5.665947451
0.63800,"","",4.545169353,-3.546936989,-1.633813739,-2.767246723,-4.520309925,-2.318651676,13.95312288,8.834043266,75.20131878,5.663202946
0.63867,"","",4.583993435,-3.557475805,-1.632539749,-2.829439402,-4.56558466,-2.274995804,14.16067395,8.893704574,75.44407994,5.608928955
0.63933,"","",4.623364449,-3.568324566,-1.63126564,-2.890977383,-4.610594273,-2.231716394,14.29359585,8.946595101,75.77638147,5.547877713
0.64000,"","",4.662189007,-3.579173565,-1.629991651,-2.953170061,-4.655869007,-2.188060522,14.31397118,8.975101033,76.02942195,5.508558472
0.64067,"","",4.701013088,-3.589712381,-1.628972411,-3.01536274,-4.70087862,-2.14440465,14.2732808,9.006992355,76.26759292,5.49774848
0.64133,"","",4.740384102,-3.600561142,-1.627698421,-3.077555418,-4.746153355,-2.10112524,14.31879375,9.095846488,76.42223596,5.515335718
0.64200,"","",4.779208183,-3.611409903,-1.626424432,-3.139748096,-4.791428089,-2.057469368,14.40228438,9.238964922,76.50983684,5.528890215
0.64267,"","",4.818579197,-3.621948719,-1.625150323,-3.201286316,-4.836437702,-2.014189959,14.45183621,9.528587192,76.53776568,5.509902719
0.64333,"","",4.857403755,-3.63279748,-1.623876333,-3.263478994,-4.881712437,-1.970534086,14.50681344,9.86025695,76.57901245,5.485482222
0.64400,"","",4.896774769,-3.64364624,-1.622602344,-3.325671673,-4.926986694,-1.927254558,14.55232638,10.09424112,76.76216618,5.480049222
0.64467,"","",4.93559885,-3.654185057,-1.621328235,-3.387864351,-4.971996784,-1.883598804,14.55443625,10.28956321,76.67805641,5.484081963
0.64533,"","",4.973329544,-3.663794041,-1.618270636,-3.467077971,-5.005356789,-1.839942932,14.54358548,10.45775313,76.59886004,5.489514963
0.64600,"","",5.011060238,-3.673093081,-1.615212917,-3.546946526,-5.03871727,-1.796663404,14.56124812,10.52968032,76.43691155,5.496348222
0.64667,"","",5.048243999,-3.682702065,-1.611900449,-3.626815081,-5.072077274,-1.753007531,14.6059774,10.52968032,76.08773637,5.489570973
0.64733,"","",5.085974216,-3.692000866,-1.608842731,-3.706683636,-5.1057024,-1.709351778,14.65076696,10.52624587,76.05463551,5.48010523
0.64800,"","",5.12370491,-3.70160985,-1.605785131,-3.786551952,-5.139062405,-1.666072249,14.74842386,10.59199106,76.35112086,5.48010523
0.64867,"","",5.161435604,-3.71090889,-1.602472663,-3.866420507,-5.172422886,-1.622416377,14.96543921,10.70248222,76.3470479,5.471927725
0.64933,"","",5.198619366,-3.720517874,-1.599414945,-3.946289063,-5.20578289,-1.578760624,15.21904577,10.79266107,76.4167407,5.448851476
0.65000,"","",5.23635006,-3.729816675,-1.596357346,-4.025502682,-5.239143372,-1.535481095,15.36203477,10.82043105,76.36437412,5.424655021
0.65067,"","",5.274080753,-3.739425659,-1.593044877,-4.105371475,-5.272503376,-1.491825223,15.39247721,10.7526252,75.97162477,5.399114316
0.65133,"","",5.31181097,-3.748724699,-1.589987159,-4.185239792,-5.305863857,-1.44816947,15.38090306,10.84893698,75.60001598,5.365396108
0.65200,"","",5.349541664,-3.758333683,-1.58667469,-4.265108109,-5.339223862,-1.404513597,15.42912869,11.02527146,75.65070166,5.337110899
0.65267,"","",5.386725426,-3.767632723,-1.583616972,-4.344976902,-5.372584343,-1.361234069,15.53299465,11.19885837,75.80857722,5.31403465
0.65333,"","",5.42445612,-3.777241468,-1.580559373,-4.424845219,-5.405944347,-1.317578316,15.67206533,11.35757902,75.83353215,5.292358657
0.65400,"","",5.462186813,-3.786540508,-1.577246904,-4.504714012,-5.439304352,-1.273922443,15.77454481,11.48372146,76.1894956,5.288269903
0.65467,"","",5.499917507,-3.796149492,-1.574189186,-4.583927631,-5.472664833,-1.230642915,15.8051681,11.51831128,76.25731356,5.295047152
0.65533,"","",5.539288521,-3.802348852,-1.570621967,-4.679507732,-5.49516964,-1.17569685,15.80727796,11.49799896,76.08780099,5.305913152
0.65600,"","",5.57920599,-3.808547974,-1.567054629,-4.774433613,-5.517409801,-1.121127009,15.80806163,11.48985441,76.19764152,5.318123401
0.65667,"","",5.61857748,-3.814747334,-1.563487411,-4.869359493,-5.539649963,-1.066557169,15.83048655,11.4518792,76.41732254,5.335766651
0.65733,"","",5.658494949,-3.821256638,-1.560174942,-4.964284897,-5.56215477,-1.011987448,15.879315,11.40168717,76.40452182,5.362875644
0.65800,"","",5.697865963,-3.827455997,-1.556607604,-5.059210777,-5.584394932,-0.9574176073,15.92675697,11.36508574,76.25317595,5.387296141
0.65867,"","",5.737783909,-3.833655357,-1.553040385,-5.154790878,-5.606635094,-0.9028478265,15.95527038,11.32033976,76.68368095,5.390040646
0.65933,"","",5.777154922,-3.839854717,-1.549473047,-5.249716759,-5.628875256,-0.8482780457,15.98981199,11.28579901,77.41526148,5.381919151
0.66000,"","",5.817072868,-3.846053839,-1.545905828,-5.344642162,-5.651380062,-0.7937082648,16.02706629,11.30611133,77.78880975,5.372397397
0.66067,"","",5.856443882,-3.852563143,-1.54233849,-5.439568043,-5.673620224,-0.7387620807,16.11990064,11.33657981,77.8625755,5.364443932
0.66133,"","",5.896361828,-3.858762503,-1.538771272,-5.534493446,-5.695860386,-0.6841922998,16.28465147,11.33795359,77.64367026,5.366012221
0.66200,"","",5.935732841,-3.864961863,-1.535458803,-5.630074024,-5.718365669,-0.629622519,16.41275082,11.34879663,77.45185345,5.354026014
0.66267,"","",5.975650787,-3.871161222,-1.531891465,-5.724999428,-5.740605831,-0.5750527382,16.50287247,11.33721763,77.79171904,5.332518054
0.66333,"","",6.015021801,-3.877360344,-1.528324246,-5.819925308,-5.762845993,-0.5204829574,16.54085016,11.379952,78.30930774,5.316499103
0.66400,"","",6.054939747,-3.883559704,-1.524756908,-5.914850712,-5.785085678,-0.4659131467,16.50425896,11.47415406,78.3182941,5.31241035
0.66467,"","",6.09431076,-3.890069008,-1.52118969,-6.009776592,-5.807590961,-0.4113433361,16.45271781,11.59009128,77.99084134,5.331397847
0.66533,"","",6.136415958,-3.898128033,-1.514055133,-6.116486073,-5.826653957,-0.3387090564,16.50564545,11.69518546,77.83432346,5.339519342
0.66600,"","",6.178521156,-3.90649724,-1.506665707,-6.223195553,-5.845716953,-0.2660747766,16.53476167,11.82471328,77.52290392,5.354418086
0.66667,"","",6.220626354,-3.914556265,-1.49953115,-6.330559731,-5.864779949,-0.1938168555,16.3970172,11.99697548,76.81815321,5.378838583
0.66733,"","",6.262731552,-3.922925472,-1.492141843,-6.437269211,-5.88410759,-0.1211825758,16.29182503,12.19229756,76.46742644,5.388360336
0.66800,"","",6.30483675,-3.930984497,-1.485007286,-6.543979168,-5.903170586,-0.04892464355,16.33118921,12.31775312,76.65245501,5.388360336
0.66867,"","",6.346941948,-3.939043522,-1.477872729,-6.650688648,-5.922233582,0.02370963432,16.44108337,12.32246322,76.81660161,5.387016089
0.66933,"","",6.388500214,-3.947412729,-1.470483303,-6.757398129,-5.941296577,0.09634391218,16.55290656,12.32447483,77.3971595,5.370717088
0.67000,"","",6.430605412,-3.955471754,-1.463348746,-6.864107609,-5.960359573,0.1686018407,16.64863445,12.41872595,77.72267276,5.342207837
0.67067,"","",6.472710133,-3.963840961,-1.455959439,-6.970817089,-5.979687214,0.2412361205,16.92472621,12.54143394,77.80186913,5.315042834
0.67133,"","",6.514815331,-3.971899986,-1.448824883,-7.077526569,-5.99875021,0.3138704002,17.11401184,12.60717912,77.75848891,5.30171238
0.67200,"","",6.556920528,-3.980268955,-1.441690326,-7.18423605,-6.017813206,0.3861283362,17.15397883,12.61738435,78.06098673,5.287037676
0.67267,"","",6.599025726,-3.988328218,-1.4343009,-7.29094553,-6.036876202,0.4587626159,17.24277428,12.67297337,78.35617908,5.262841221
0.67333,"","",6.641130924,-3.996697187,-1.427166343,-7.397655487,-6.055939198,0.5310205221,17.2786421,12.66684043,78.58213118,5.269842511
0.67400,"","",6.683236122,-4.004756451,-1.419777036,-7.504364967,-6.075266838,0.6036548018,17.34302332,12.79087314,78.78099488,5.303952793
0.67467,"","",6.724794388,-4.01312542,-1.412642479,-7.611729145,-6.094329834,0.6762890816,17.41686883,12.84847377,78.75927245,5.313642578
0.67533,"","",6.767446518,-4.022114277,-1.399137735,-7.726294518,-6.107303143,0.7496760488,17.50427779,12.95018255,78.6019141,5.296223369
0.67600,"","",6.810098171,-4.031413555,-1.385632992,-7.84085989,-6.120541573,0.8230630159,17.68464166,13.18485362,78.35423957,5.285637419
0.67667,"","",6.852750301,-4.040402412,-1.372128367,-7.955425262,-6.133514881,0.8968263268,17.86910471,13.35917648,78.28105565,5.295327203
0.67733,"","",6.895402431,-4.04939127,-1.358878493,-8.069991112,-6.146752834,0.970213294,17.96947431,13.46029651,78.21265585,5.303448699
0.67800,"","",6.938054562,-4.058690548,-1.34537375,-8.184556007,-6.15972662,1.043600321,18.07798199,13.51181326,78.13746779,5.306361235
0.67867,"","",6.980706215,-4.067679405,-1.331869006,-8.299121857,-6.172964573,1.116987228,18.21361659,13.5613184,78.0474102,5.314482731
0.67933,"","",7.023358345,-4.076978207,-1.318364382,-8.414341927,-6.185937881,1.190750599,18.2333891,13.6712208,77.81492846,5.303616729
0.68000,"","",7.066010475,-4.085967541,-1.304859638,-8.528907776,-6.199176311,1.264137506,18.59417712,13.81095385,77.64076108,5.275163488
0.68067,"","",7.108662128,-4.094956398,-1.291355014,-8.643472672,-6.212414265,1.337524414,19.02416894,13.97099921,77.68627475,5.273595199
0.68133,"","",7.151314259,-4.104255199,-1.278105021,-8.758038521,-6.22538805,1.411287785,19.36596814,14.17377896,77.69442067,5.278972189
0.68200,"","",7.193966389,-4.113244534,-1.264600396,-8.872603416,-6.238626003,1.484674692,19.57617162,14.37660776,77.6800037,5.292526686
0.68267,"","",7.23607111,-4.122543335,-1.251095653,-8.987169266,-6.251599312,1.558061719,19.68817565,14.53194303,77.5842569,5.327813185
0.68333,"","",7.27872324,-4.131532192,-1.237591028,-9.102389336,-6.264837742,1.631448627,19.77299248,14.57399051,77.51695614,5.377998427
0.68400,"","",7.32137537,-4.140521526,-1.224086285,-9.216955185,-6.27781105,1.705211997,19.87818466,14.61667582,77.68381805,5.378222469
0.68467,"","",7.364027023,-4.149820328,-1.210581541,-9.331520081,-6.29104948,1.778598905,19.89657068,14.6471443,77.46407238,5.349993269
0.68533,"","",7.407773018,-4.158499241,-1.194783688,-9.444776535,-6.289460659,1.841071963,19.93726105,14.66137273,76.99018715,5.339407321
0.68600,"","",7.451518536,-4.167178154,-1.178730845,-9.55868721,-6.287872314,1.903921247,20.02545368,14.77868373,76.58812818,5.326076866
0.68667,"","",7.495264053,-4.175857544,-1.162678123,-9.672597885,-6.286283493,1.966394305,20.04504534,14.99907729,76.24166831,5.293702904
0.68733,"","",7.539009571,-4.184536457,-1.1466254,-9.78585434,-6.284695148,2.029243708,20.07958695,15.18419414,76.21917009,5.274715406
0.68800,"","",7.582755089,-4.19321537,-1.130827427,-9.899765015,-6.283370972,2.092092991,20.05788542,15.33540807,75.71108497,5.280148407
0.68867,"","",7.626501083,-4.201894283,-1.114774704,-10.01302147,-6.281782627,2.15456605,19.96095189,15.56330836,75.35900053,5.293702903
0.68933,"","",7.669699669,-4.210573673,-1.098721862,-10.12693214,-6.280193806,2.217415333,19.95359748,15.82982168,75.53310325,5.282836902
0.69000,"","",7.713445187,-4.219562531,-1.082669139,-10.24018764,-6.278605461,2.279888391,19.92990665,16.02445687,75.67882457,5.277627943
0.69067,"","",7.757190704,-4.228241444,-1.066616416,-10.35409832,-6.27701664,2.342737675,19.87703929,16.18450224,75.44201124,5.270794685
0.69133,"","",7.800936699,-4.236920834,-1.050818443,-10.46735477,-6.27569294,2.405210733,19.91634318,16.36216143,75.21334383,5.274659396
0.69200,"","",7.844682217,-4.245599747,-1.03476572,-10.58126545,-6.274104595,2.468060017,19.93937092,16.50729147,75.21282663,5.266313859
0.69267,"","",7.888427734,-4.25427866,-1.018712878,-10.69517612,-6.272515774,2.530533075,19.94612251,16.60497704,75.11921329,5.270402612
0.69333,"","",7.932173252,-4.262957573,-1.002660155,-10.80843258,-6.270927429,2.593382359,19.85582001,16.77993774,74.64991822,5.27880416
0.69400,"","",7.975919247,-4.271636963,-0.9868622422,-10.92234325,-6.269338608,2.655855417,19.73567791,17.15022051,73.57297686,5.307481441
0.69467,"","",8.019664764,-4.280315876,-0.9708094597,-11.03559971,-6.268014908,2.7187047,19.69426414,17.72799312,72.5801453,5.340023436
0.69533,"","",8.06286335,-4.287755013,-0.9519538283,-11.11808681,-6.258748055,2.790962696,19.58093389,18.33903083,72.5484021,5.360355179
0.69600,"","",8.106061935,-4.295194149,-0.9330982566,-11.19991875,-6.249746323,2.863596916,19.50093962,18.64754258,71.86614956,5.380686923
0.69667,"","",8.149261475,-4.302633286,-0.9142426252,-11.28240585,-6.240479469,2.935854912,19.52125466,18.63939802,71.27744579,5.413228917
0.69733,"","",8.19246006,-4.310072422,-0.8953869939,-11.36423874,-6.231212616,3.008489132,19.55248076,18.82657555,71.23619902,5.436529207
0.69800,"","",8.236205101,-4.317511559,-0.8765313625,-11.44672585,-6.222210884,3.080747128,19.5348784,19.01512685,70.96298771,5.454396498
0.69867,"","",8.27940464,-4.324950695,-0.8579306006,-11.52855873,-6.212944031,3.153381348,19.52535384,19.01375307,70.43182249,5.451932044
0.69933,"","",8.322603226,-4.332389832,-0.8390749693,-11.61104584,-6.203941822,3.225639343,19.52674033,19.164967,69.17088693,5.441346095
0.70000,"","",8.365801811,-4.339829445,-0.8202193379,-11.69287777,-6.194675446,3.297897339,19.53548123,19.30121654,68.43898316,5.45630085
0.70067,"","",8.409547806,-4.347268581,-0.8013637066,-11.77536488,-6.185673237,3.370531559,19.56049827,19.32157792,68.37304006,5.488842842
0.70133,"","",8.452746391,-4.354707718,-0.7825081348,-11.85785198,-6.176406384,3.442789555,19.60046526,19.43619042,68.15924219,5.560760082
0.70200,"","",8.495944977,-4.36183691,-0.7636525035,-11.93968487,-6.167140007,3.515423775,19.66888538,19.59834552,68.13079615,5.635365821
0.70267,"","",8.539143562,-4.369276047,-0.7447968721,-12.02217197,-6.158137798,3.58768177,19.77528319,19.85740118,67.17048357,5.684150806
0.70333,"","",8.582889557,-4.376715183,-0.7261960506,-12.10400391,-6.148870945,3.66031599,19.81868626,20.1652751,65.97413342,5.738424803
0.70400,"","",8.626088142,-4.38415432,-0.7073404193,-12.18649101,-6.139869213,3.732573986,19.75358165,20.4351738,65.23763949,5.791522583
0.70467,"","",8.669286728,-4.391593456,-0.6884848475,-12.2683239,-6.13060236,3.805208206,19.69390243,20.64133892,64.66251218,5.818631578
0.70533,"","",8.713032722,-4.403682232,-0.6647878885,-12.30432987,-6.121335983,3.891767263,19.65592474,20.88955153,63.95989489,5.815943083
0.70600,"","",8.756231308,-4.415461063,-0.6410909891,-12.33968163,-6.111804485,3.978326082,19.61390816,21.19541382,63.31830727,5.814542826
0.70667,"","",8.799977303,-4.427549362,-0.6171392798,-12.3756876,-6.102537632,4.065261364,19.63832238,21.44431332,63.12571463,5.818407537
0.70733,"","",8.843722343,-4.439328194,-0.5934423208,-12.41103935,-6.093006134,4.15182066,19.74954274,21.53385434,62.71744924,5.826304992
0.70800,"","",8.886921883,-4.451107025,-0.5697454214,-12.44704628,-6.083474636,4.238379478,19.88921623,21.62128562,61.9551599,5.832858199
0.70867,"","",8.930666924,-4.463195324,-0.5460484624,-12.48239803,-6.074207783,4.324938297,19.98880216,21.84305295,60.91209517,5.805469155
0.70933,"","",8.974412918,-4.474974155,-0.522351563,-12.51840401,-6.064676285,4.411873817,20.05041041,21.98744704,59.83024041,5.795947402
0.71000,"","",9.017611504,-4.487062931,-0.4986546338,-12.55440998,-6.055409431,4.498432636,20.0443822,21.97454332,59.22046066,5.786425648
0.71067,"","",9.061357498,-4.498841763,-0.4749577045,-12.58976173,-6.045877934,4.584991932,20.1074975,21.9949047,59.1179256,5.773991358
0.71133,"","",9.105102539,-4.510930061,-0.4512607753,-12.62576771,-6.036611557,4.671926975,20.14758506,21.9928931,58.86294561,5.756124067
0.71200,"","",9.148848534,-4.522708893,-0.4275638461,-12.66111946,-6.027080059,4.758486271,20.13203229,22.05795139,59.00944273,5.74228952
0.71267,"","",9.192047119,-4.534797668,-0.4036121368,-12.69712639,-6.017813206,4.84504509,20.07235307,22.1501909,58.51784337,5.733943981
0.71333,"","",9.235793114,-4.5465765,-0.3799152076,-12.73247719,-6.008281708,4.931980133,20.1631981,22.15696168,58.03173926,5.729687197
0.71400,"","",9.279538155,-4.558664799,-0.3562182784,-12.76848412,-5.999014854,5.018539429,20.32457314,22.16574406,58.03930332,5.72307798
0.71467,"","",9.32273674,-4.57044363,-0.3325213492,-12.80449009,-5.989483356,5.105098248,20.41680466,22.13184113,57.90153397,5.734168023
0.71533,"","",9.362108231,-4.580052376,-0.3060215712,-12.79074192,-5.990807056,5.185259342,20.42825824,22.18743015,57.64034758,5.755900023
0.71600,"","",9.401478767,-4.589661598,-0.279776603,-12.77764893,-5.992131233,5.265420437,20.36315364,22.19214026,57.22988411,5.742289517
0.71667,"","",9.440850258,-4.599270344,-0.2532767951,-12.76390171,-5.993454933,5.345581532,20.2085302,22.35282346,57.08338699,5.740665217
0.71733,"","",9.480221748,-4.608879566,-0.2267770171,-12.75080776,-5.994778633,5.425366402,20.08706188,22.44977308,56.93469177,5.752651428
0.71800,"","",9.51904583,-4.618488312,-0.200532034,-12.73706055,-5.996102333,5.505527496,20.00025573,22.53450587,56.8267261,5.770070637
0.71867,"","",9.558416367,-4.628097057,-0.174032256,-12.7239666,-5.997161388,5.585689068,20.18471878,22.85253594,56.84437558,5.814598837
0.71933,"","",9.597787857,-4.638016224,-0.1475324631,-12.71021938,-5.998485565,5.665850163,20.4844411,23.30078074,56.56844897,5.87945878
0.72000,"","",9.637158394,-4.647624969,-0.12128748,-12.69712639,-5.999809265,5.745634556,20.63502565,23.64864145,56.44173477,5.926675476
0.72067,"","",9.676529884,-4.657234192,-0.09478769451,-12.68337822,-6.001132965,5.825796127,20.61676019,23.94091314,56.26323586,5.925107187
0.72133,"","",9.715353966,-4.666842937,-0.06828790903,-12.67028522,-6.002456665,5.905957222,20.55105276,24.16400519,55.86854699,5.937317436
0.72200,"","",9.754725456,-4.676451683,-0.04204292968,-12.65653706,-6.003780842,5.986118317,20.42626892,24.13481237,55.66102017,5.983413925
0.72267,"","",9.794095993,-4.686060905,-0.0155431442,-12.64344406,-6.005104542,6.066279411,20.42759512,24.21753355,55.65015895,6.03225492
0.72333,"","",9.833467484,-4.695669651,0.01095664222,-12.62969589,-6.006428242,6.146064281,20.52525203,24.22160583,55.46571222,6.064796911
0.72400,"","",9.87283802,-4.705278873,0.03720162436,-12.6166029,-6.007751942,6.226225376,20.50144063,24.29215925,54.91314784,6.070229911
0.72467,"","",9.912209511,-4.714887619,0.06370140612,-12.6035099,-6.009076118,6.306386471,20.40167385,24.6584188,54.13133416,6.034999424
0.72533,"","",9.944471359,-4.721396923,0.09096561372,-12.54917336,-6.031580925,6.378268242,20.30329355,25.19689149,53.79166254,5.964426425
0.72600,"","",9.976734161,-4.727596283,0.1184846237,-12.49483585,-6.054085732,6.450149536,20.21377472,25.73134096,53.43686281,5.892341145
0.72667,"","",10.00899601,-4.733795643,0.1457488239,-12.44115448,-6.076590538,6.522407532,20.17441054,26.15451428,52.58425728,5.862263607
0.72733,"","",10.04125881,-4.740304947,0.1732678264,-12.38681698,-6.099360466,6.594289303,20.14595742,26.16810489,51.44951874,5.88237131
0.72800,"","",10.07352161,-4.746504307,0.200532034,-12.33248043,-6.121865273,6.666170597,20.1587975,26.665217,50.81200413,5.88237131
0.72867,"","",10.10633087,-4.753013611,0.2277962416,-12.2787981,-6.144370079,6.738052368,20.16343921,27.29386856,50.83185171,5.900014558
0.72933,"","",10.13859272,-4.759212971,0.2553152442,-12.22446156,-6.166874886,6.809934139,20.17296378,27.68647525,50.44065397,5.883491515
0.73000,"","",10.17085552,-4.765721798,0.2825794518,-12.17012501,-6.189644814,6.882191658,20.18923993,27.86069998,49.69271698,5.860415266
0.73067,"","",10.20311737,-4.771921158,0.3100984693,-12.11578846,-6.21214962,6.954073429,20.28749966,27.89391602,48.87560436,5.856326512
0.73133,"","",10.23538017,-4.778430462,0.3373626769,-12.06210613,-6.234654427,7.0259552,20.32065478,27.85594082,48.82349638,5.842772016
0.73200,"","",10.26764202,-4.784629822,0.3648816645,-12.00776958,-6.25715971,7.097836494,20.36327418,27.85863931,48.3867203,5.829217518
0.73267,"","",10.30045128,-4.791139126,0.3921458721,-11.95343208,-6.279929161,7.169718266,20.35109721,27.92781895,48.33241421,5.834650519
0.73333,"","",10.33271408,-4.797338486,0.4194100797,-11.89975071,-6.302433968,7.241976261,20.26561727,28.01328769,48.11887494,5.834650519
0.73400,"","",10.36497593,-4.80384779,0.4469290972,-11.84541321,-6.324939251,7.313857555,20.25205382,28.00239558,48.01659848,5.805917227
0.73467,"","",10.39723873,-4.81004715,0.474193275,-11.79107666,-6.347444057,7.385739326,20.34428534,28.07834599,47.9962337,5.793706978
0.73533,"","",10.42184544,-4.814696789,0.5045151711,-11.74197769,-6.378421307,7.441814423,20.44664426,28.45947181,47.75205028,5.842547974
0.73600,"","",10.44645214,-4.819655895,0.5348370075,-11.69222355,-6.409398556,7.497513294,20.48251207,28.98847524,47.33156604,5.892733213
0.73667,"","",10.4710598,-4.824305534,0.5651589036,-11.64246941,-6.44011116,7.55358839,20.47515766,29.42523915,46.94366543,5.898166215
0.73733,"","",10.4956665,-4.828955173,0.5952259898,-11.59271526,-6.471088409,7.609663486,20.41891452,29.69518691,46.65661901,5.883267472
0.73800,"","",10.52027321,-4.83391428,0.6255478263,-11.54296112,-6.501801014,7.665362358,20.35863247,29.78742643,46.28145449,5.858846975
0.73867,"","",10.54487991,-4.838563919,0.6558697224,-11.49320698,-6.532778263,7.721437454,20.33361543,29.7799197,45.72449387,5.818183484
0.73933,"","",10.56948662,-4.843213558,0.6861915588,-11.44345284,-6.563755989,7.777136326,20.23191962,29.79076275,45.38191301,5.770462697
0.74000,"","",10.59409428,-4.848172665,0.7165134549,-11.39369869,-6.594468594,7.833211899,20.07325728,29.94678491,45.32088332,5.737696665
0.74067,"","",10.61870098,-4.852822304,0.7465805411,-11.34394455,-6.625445843,7.889286995,20.0604172,30.22620194,45.17845914,5.730695373
0.74133,"","",10.64330769,-4.857471943,0.7769023776,-11.29419041,-6.656158447,7.944985867,20.07669336,30.34419983,45.13772958,5.739993083
0.74200,"","",10.66791439,-4.862121582,0.8072242737,-11.24443626,-6.687135696,8.001060486,20.00073799,30.63377303,44.87272883,5.760100784
0.74267,"","",10.69252205,-4.867080688,0.8375461102,-11.19468212,-6.717848301,8.057135582,19.94979966,31.13628212,44.37899603,5.778864242
0.74333,"","",10.71712875,-4.871730328,0.8678680062,-11.1455822,-6.74882555,8.11283493,20.01683329,31.48144436,44.0724899,5.774551449
0.74400,"","",10.74173546,-4.876379967,0.8979350328,-11.09582806,-6.779802799,8.168910027,20.14764532,31.63128451,44.06705929,5.756684159
0.74467,"","",10.76634216,-4.881339073,0.9282569289,-11.04607391,-6.810515404,8.224608421,20.20654087,31.82994291,44.08658362,5.737472622
0.74533,"","",10.78219986,-4.883509159,0.9598528147,-11.03494453,-6.841228008,8.243049622,20.19086754,32.01638447,43.99432793,5.74968287
0.74600,"","",10.79860497,-4.885988712,0.9911939502,-11.02381611,-6.871675968,8.261490822,20.17869057,32.32700594,43.72984438,5.798523868
0.74667,"","",10.81446266,-4.888158321,1.022534966,-11.01268673,-6.902388573,8.279931068,20.21534206,33.36460232,43.23746923,5.855486354
0.74733,"","",10.83032036,-4.890638351,1.054130912,-11.00155735,-6.933101177,8.298372269,20.20859047,34.49173979,42.75136513,5.908360092
0.74800,"","",10.84672451,-4.893117905,1.085471988,-10.99042797,-6.963549137,8.316812515,20.16036483,35.17804105,42.74050392,5.926003341
0.74867,"","",10.86258316,-4.895287514,1.117067933,-10.97995377,-6.994261742,8.335253716,20.20304452,35.56868519,42.44944917,5.902703049
0.74933,"","",10.87844086,-4.897767544,1.148409009,-10.96882439,-7.024709225,8.353694916,20.22673537,35.80468095,42.34691411,5.917433761
0.75000,"","",10.89484501,-4.899937153,1.180004954,-10.95769501,-7.055421829,8.372135162,20.26941505,35.85762055,42.32577353,5.937541465
0.75067,"","",10.91070271,-4.902416706,1.21134603,-10.94656563,-7.086134434,8.390576363,20.24638731,35.93224625,42.25310682,5.94952767
0.75133,"","",10.9265604,-4.904896736,1.242687106,-10.93543625,-7.116582394,8.409016609,20.29388956,36.14925443,42.09303318,5.949303629
0.75200,"","",10.94296551,-4.907066345,1.274282932,-10.92430782,-7.147294998,8.427457809,20.33325374,36.31337208,41.66033006,5.940958092
0.75267,"","",10.9588232,-4.909545898,1.305624127,-10.91383266,-7.177742958,8.44589901,20.32180015,36.34531246,41.19730605,5.948855546
0.75333,"","",10.9746809,-4.911715984,1.337219954,-10.90270329,-7.208455563,8.464339256,20.22625311,36.32975931,40.73693271,5.98526225
0.75400,"","",10.99108505,-4.914195538,1.368561029,-10.89157486,-7.23916769,8.482780457,20.12395448,36.30336311,40.59799963,6.029790452
0.75467,"","",11.00694275,-4.916675091,1.399902225,-10.88044548,-7.26961565,8.501221657,20.06427526,36.28167701,40.36474208,6.068941664
0.75533,"","",11.01405144,-4.918845177,1.43328166,-10.87193489,-7.293179512,8.488049507,20.06831416,36.31557994,40.23098102,6.090617656
0.75600,"","",11.02061367,-4.92132473,1.466661215,-10.8634243,-7.316743851,8.474877357,20.07566857,36.35762743,40.16859368,6.089273408
0.75667,"","",11.0271759,-4.923804283,1.499786019,-10.85425854,-7.340307713,8.461705208,19.9704764,36.34408588,39.75082472,6.100139409
0.75733,"","",11.03428459,-4.926284313,1.533165455,-10.84574795,-7.36360693,8.448533058,19.81241688,36.27353246,39.16347859,6.098739151
0.75800,"","",11.04084587,-4.928763866,1.566290259,-10.83723736,-7.387170792,8.435360909,19.65025818,36.18536522,38.8433313,6.079751654
0.75867,"","",11.0474081,-4.930933952,1.599669814,-10.82807255,-7.410734653,8.42256546,19.50027645,36.09180099,38.73478379,6.083840406
0.75933,"","",11.05451679,-4.933413506,1.633049369,-10.81956196,-7.434298515,8.409393311,19.39779697,36.04700595,38.53811819,6.100083398
0.76000,"","",11.06107807,-4.935893059,1.666174054,-10.81105137,-7.457862854,8.396221161,19.37531177,36.1311009,38.26141576,6.098739149
0.76067,"","",11.06818676,-4.938373089,1.699553609,-10.8018856,-7.481162071,8.383049011,19.35499672,36.18462926,38.22618145,6.098739149
0.76133,"","",11.07474899,-4.940852642,1.732678294,-10.79337502,-7.504725933,8.369877815,19.31026744,36.27613282,38.09132135,6.094650398
0.76200,"","",11.08131123,-4.943022251,1.766057849,-10.78486443,-7.528289795,8.356705666,19.24654932,36.48293578,38.0880242,6.07706316
0.76267,"","",11.08841896,-4.945502281,1.799437404,-10.77635384,-7.551853657,8.343909264,19.18759349,36.7154971,38.08938185,6.09336216
0.76333,"","",11.09498119,-4.947981834,1.832562089,-10.76718903,-7.575417995,8.330738068,19.13062696,36.88300013,38.09345481,6.138114404
0.76400,"","",11.10208988,-4.950461388,1.865941644,-10.75867844,-7.598981857,8.317565918,19.04996958,37.00840662,37.73678021,6.182866647
0.76467,"","",11.10865211,-4.952941418,1.899066448,-10.75016785,-7.622281075,8.304393768,18.9706987,37.10265774,37.24168974,6.249350893
0.76533,"","",11.10482407,-4.957280636,1.931426764,-10.69321251,-7.622281075,8.296866417,18.92126742,37.18601674,37.00164392,6.314434882
0.76600,"","",11.10099602,-4.961620331,1.963532209,-10.63691139,-7.622281075,8.288963318,18.90034955,37.32570073,36.64277124,6.323900625
0.76667,"","",11.09716892,-4.96626997,1.995892525,-10.57995605,-7.622281075,8.28143692,18.8753325,37.46538471,36.26353376,6.311690377
0.76733,"","",11.09334087,-4.970609188,2.027997971,-10.52365589,-7.622281075,8.273533821,18.85845353,37.57450209,35.94745941,6.294271169
0.76800,"","",11.08951283,-4.975258827,2.060103655,-10.46735477,-7.622281075,8.26600647,18.86387892,37.68499325,35.32028881,6.321604202
0.76867,"","",11.08568573,-4.979598522,2.09246397,-10.41039944,-7.622281075,8.258480072,18.87069079,37.86471311,35.27632674,6.340815742
0.76933,"","",11.08185768,-4.984247684,2.124569416,-10.35409832,-7.622015953,8.250576973,18.83349677,38.05390224,35.02457925,6.334262537
0.77000,"","",11.07802963,-4.988587379,2.156929731,-10.29714298,-7.622015953,8.243049622,18.80847972,38.21262289,34.94913259,6.295167338
0.77067,"","",11.07365513,-4.993237019,2.189035177,-10.24084282,-7.622015953,8.235146523,18.78406549,38.36050049,34.93342261,6.269402595
0.77133,"","",11.06982708,-4.997576237,2.221395493,-10.18388748,-7.622015953,8.227619171,18.72709896,38.52461814,34.88461179,6.232771846
0.77200,"","",11.06599998,-5.002225876,2.253500938,-10.12758636,-7.622015953,8.219716072,18.6497571,38.59924384,34.75388929,6.175809354
0.77267,"","",11.06217194,-5.006565571,2.285606623,-10.07128525,-7.622015953,8.212189674,18.56566365,38.60876217,34.65083703,6.143267358
0.77333,"","",11.05834389,-5.010904789,2.317966938,-10.01432991,-7.622015953,8.204662323,18.51683519,38.67386953,34.33398689,6.133745607
0.77400,"","",11.05451679,-5.015554428,2.350072384,-9.958029747,-7.621751308,8.196759224,18.49784635,38.74981994,34.23009418,6.120135102
0.77467,"","",11.05068874,-5.019893646,2.382432699,-9.901074409,-7.621751308,8.189232826,18.45854245,38.80408424,34.06323226,6.101147603
0.77533,"","",11.03647137,-5.02640295,2.415047884,-9.876196861,-7.59289217,8.151974678,18.4184549,38.83999878,33.77838391,6.053650857
0.77600,"","",11.02225399,-5.032912254,2.44766283,-9.851320267,-7.563768387,8.11471653,18.40682046,38.69820506,33.55863821,6.0348874
0.77667,"","",11.00803661,-5.039111614,2.480278015,-9.826442719,-7.534644127,8.077835083,18.40139508,38.53340052,33.52741221,6.008002448
0.77733,"","",10.99436665,-5.045620918,2.5128932,-9.801566124,-7.505784988,8.040576935,18.35256662,38.51774924,33.41130064,5.974116207
0.77800,"","",10.98014927,-5.052130222,2.545508385,-9.776688576,-7.476660728,8.003318787,18.27389856,38.59301275,33.40780953,5.96733896
0.77867,"","",10.96593189,-5.058329582,2.578378201,-9.751811981,-7.447536945,7.966061115,18.25430689,38.60311985,33.20571332,5.959217465
0.77933,"","",10.95171452,-5.064838886,2.610993385,-9.726934433,-7.418412685,7.929179192,18.16068888,38.56651843,32.85796044,5.94566297
0.78000,"","",10.93749714,-5.07134819,2.64360857,-9.702057838,-7.389553547,7.891921043,18.00877813,38.53050577,32.61869042,5.936197226
0.78067,"","",10.92327976,-5.07754755,2.676223516,-9.67718029,-7.360429764,7.854663372,17.90159666,38.50199983,32.4756844,5.929419978
0.78133,"","",10.90906239,-5.084056854,2.708838701,-9.652303696,-7.331305504,7.817781448,17.85819359,38.40298955,32.15773522,5.913120976
0.78200,"","",10.89484501,-5.090566158,2.741453886,-9.627426147,-7.302446365,7.780523777,17.86633167,38.45725385,31.40171698,5.896877985
0.78267,"","",10.88117504,-5.096765518,2.774069071,-9.601894379,-7.273322582,7.743265629,17.90913192,38.65183997,30.25967298,5.907743989
0.78333,"","",10.86695766,-5.103274822,2.806938887,-9.577017784,-7.244198322,7.706007481,18.02306498,38.83901749,29.03623452,5.948463487
0.78400,"","",10.85274029,-5.109784126,2.839554071,-9.552140236,-7.215339184,7.669126034,18.01902608,38.9122694,28.42044231,5.990527234
0.78467,"","",10.83852291,-5.115983009,2.872169018,-9.527263641,-7.186215401,7.631867886,17.90647951,38.91904016,27.83367799,5.998648731
0.78533,"","",10.8133688,-5.126522064,2.903510332,-9.523990631,-7.144912243,7.575792789,17.89966764,38.91904016,26.33676966,5.966330779
0.78600,"","",10.78821468,-5.137061119,2.934851408,-9.520062447,-7.103609085,7.519717693,18.05230178,39.0045089,25.53704791,5.96655482
0.78667,"","",10.76360798,-5.147599697,2.965937614,-9.516788483,-7.062305927,7.463642597,18.1710574,39.14963894,25.48009117,5.988510866
0.78733,"","",10.73845482,-5.158138752,2.99727869,-9.512861252,-7.021002769,7.4071908,18.23284649,39.22426463,25.15916808,5.988734907
0.78800,"","",10.7133007,-5.16867733,3.028619766,-9.508933067,-6.979699612,7.351115704,18.11288523,39.19850625,24.17228434,5.960505708
0.78867,"","",10.688694,-5.179216385,3.059960842,-9.505660057,-6.938396454,7.295040607,17.90672064,39.18570065,23.38478145,5.933620756
0.78933,"","",10.66353989,-5.189754963,3.091301918,-9.501731873,-6.897093296,7.238965511,17.74263293,39.26238702,22.95266017,5.928467808
0.79000,"","",10.63838673,-5.200294018,3.122642994,-9.498458862,-6.855790138,7.182890415,17.6856664,39.32003672,22.59378747,5.949023592
0.79067,"","",10.61323261,-5.210832596,3.15398407,-9.494530678,-6.81448698,7.126815319,17.75215749,39.27391696,22.33796702,5.977700871
0.79133,"","",10.58862591,-5.221371651,3.185325146,-9.490602493,-6.773183823,7.070739746,17.78127371,39.14301535,22.16573916,5.995568163
0.79200,"","",10.56347179,-5.231910229,3.21666646,-9.487329483,-6.732145309,7.01466465,17.76288769,39.02840285,21.97637902,6.013435453
0.79267,"","",10.53831863,-5.242449284,3.247752666,-9.483401299,-6.690842152,6.958213329,17.77572777,38.86492302,21.86925381,6.046201485
0.79333,"","",10.51316452,-5.252987862,3.279093742,-9.480128288,-6.649539471,6.902138233,17.82925823,38.65807099,21.79277274,6.078967518
0.79400,"","",10.48855782,-5.263526917,3.310434818,-9.476200104,-6.608236313,6.846063137,17.92884417,38.52309709,21.56707924,6.10770081
0.79467,"","",10.4634037,-5.274065495,3.341775894,-9.472271919,-6.566933155,6.789987564,18.06779428,38.44503694,21.45536386,6.147300105
0.79533,"","",10.42840767,-5.288324356,3.370568991,-9.468998909,-6.525100231,6.732783318,18.20752806,38.39685652,21.32703341,6.212664144
0.79600,"","",10.39341068,-5.302582741,3.399616718,-9.465725899,-6.483267784,6.675955772,18.2970469,38.42595122,21.17568752,6.309169919
0.79667,"","",10.35841465,-5.316841125,3.428409815,-9.462451935,-6.44143486,6.618751526,18.31470953,38.44964892,21.0338452,6.409764449
0.79733,"","",10.32341766,-5.33109951,3.457202911,-9.45852375,-6.399602413,6.561547279,18.30657146,38.51279374,20.72921394,6.47916123
0.79800,"","",10.28842163,-5.345357895,3.485996008,-9.45525074,-6.357769489,6.504343033,18.26859377,38.58266027,20.43544389,6.544469259
0.79867,"","",10.25342464,-5.35961628,3.514788866,-9.45197773,-6.315937042,6.447515011,18.14109726,38.61322687,20.38443497,6.639630784
0.79933,"","",10.21897507,-5.373874664,3.543836832,-9.44870472,-6.274104595,6.390311241,18.00413646,38.63697363,20.29088628,6.72941532
0.80000,"","",10.18397903,-5.388133049,3.572629929,-9.444776535,-6.232271671,6.333106995,17.99057301,38.66616645,20.1077972,6.77007881
0.80067,"","",10.14898205,-5.402391434,3.601422787,-9.441502571,-6.190439224,6.276278973,18.07195376,38.73941836,20.00332264,6.77007881
0.80133,"","",10.11398602,-5.416649818,3.630215883,-9.438229561,-6.1486063,6.219074726,18.20487567,38.65125113,20.00383984,6.776856059
0.80200,"","",10.07898903,-5.430908203,3.659263849,-9.434956551,-6.106773853,6.16187048,18.26105853,38.50881958,19.88585341,6.850117553
0.80267,"","",10.043993,-5.445166588,3.688056707,-9.431028366,-6.064940929,6.105042934,18.23182174,38.36776181,19.6579618,6.968355329
0.80333,"","",10.00899601,-5.459424973,3.716849804,-9.427755356,-6.023108482,6.047838688,18.18226989,38.23210104,19.43685846,7.020108862
0.80400,"","",9.973999977,-5.473683834,3.7456429,-9.424482346,-5.981275558,5.990634441,18.20324803,38.1276447,19.07333095,7.028230359
0.80467,"","",9.939002991,-5.487942219,3.774690628,-9.420554161,-5.939443111,5.933430195,18.30693314,38.09511555,18.72202229,7.037976153
0.80533,"","",9.890883446,-5.505609989,3.801445246,-9.427755356,-5.896551609,5.875849724,18.39434211,38.12563309,18.54701447,7.099251433
0.80600,"","",9.842216492,-5.522968292,3.828199863,-9.434301376,-5.853924274,5.818269253,18.3379784,38.13853681,18.19977878,7.104908477
0.80667,"","",9.794095993,-5.540636063,3.854954481,-9.440848351,-5.811032772,5.76031208,18.51840256,38.15011581,17.80780523,7.079143731
0.80733,"","",9.745429039,-5.557994366,3.881709099,-9.448049545,-5.76814127,5.702731609,18.91174287,38.1820562,17.78394934,7.079367773
0.80800,"","",9.69730854,-5.575662136,3.908463717,-9.454596519,-5.725513935,5.645151138,19.30375699,38.255995,17.72020435,7.089057557
0.80867,"","",9.649188995,-5.593020439,3.935218334,-9.46114254,-5.682622433,5.587194443,19.60215312,38.40048721,16.96470328,7.089281599
0.80933,"","",9.600522041,-5.61068821,3.962227583,-9.467689514,-5.639730453,5.529613495,19.73447221,38.58766474,16.02747078,7.120703386
0.81000,"","",9.552401543,-5.628046513,3.988982201,-9.474890709,-5.597103596,5.472033024,19.74333367,38.74437379,15.50936489,7.188755922
0.81067,"","",9.503734589,-5.64571476,4.015737057,-9.481437683,-5.554212093,5.414076328,19.6871508,38.8848428,15.32899112,7.241685667
0.81133,"","",9.45561409,-5.663072586,4.042491436,-9.487983704,-5.511320114,5.356495857,19.59160376,39.03267134,15.29834697,7.260673165
0.81200,"","",9.406947136,-5.680740833,4.069245815,-9.494530678,-5.468428612,5.298915386,19.51365906,39.15744001,14.68856721,7.285093662
0.81267,"","",9.358827591,-5.69809866,4.096000671,-9.501731873,-5.425801754,5.240958214,19.46965317,39.29378767,13.73155177,7.323068657
0.81333,"","",9.310160637,-5.715766907,4.122755051,-9.508277893,-5.382909775,5.183377743,19.47447574,39.35958192,13.22482429,7.381375397
0.81400,"","",9.262040138,-5.733124733,4.149764538,-9.514824867,-5.340018272,5.125797272,19.5837068,39.33048722,13.23756036,7.426351681
0.81467,"","",9.21391964,-5.75079298,4.176519394,-9.521371841,-5.297391415,5.067840099,19.73911391,39.22539305,13.07535326,7.419518422
0.81533,"","",9.14283371,-5.771250725,4.205312252,-9.540356636,-5.249468803,5.013647079,19.78052767,39.10400977,12.85618942,7.461582169
0.81600,"","",9.072293282,-5.791708469,4.23410511,-9.559341431,-5.20181179,4.959076881,19.71614645,38.9819396,12.71783821,7.47922542
0.81667,"","",9.001753807,-5.812166214,4.262898445,-9.578327179,-5.153889179,4.904883385,19.68980319,38.81644817,12.44514409,7.487346914
0.81733,"","",8.931213379,-5.832314014,4.291691303,-9.597311974,-5.106231689,4.850313663,19.72579157,38.6428122,12.24440554,7.507678659
0.81800,"","",8.860127449,-5.852771759,4.320484161,-9.616296768,-5.058309555,4.795743942,19.73465303,38.6428122,12.03959403,7.514679949
0.81867,"","",8.789587021,-5.873229504,4.349277496,-9.634627342,-5.010652065,4.741550446,19.68383527,38.84220656,11.88954115,7.533891486
0.81933,"","",8.719047546,-5.893687248,4.378070354,-9.653613091,-4.962994576,4.686980724,19.67238168,38.97374599,11.25803899,7.540668735
0.82000,"","",8.648508072,-5.914144993,4.406863689,-9.672597885,-4.915072441,4.632411003,19.74833705,38.92355396,10.96698423,7.580043986
0.82067,"","",8.577421188,-5.934602737,4.435656548,-9.69158268,-4.867414951,4.578217506,19.78360205,38.84083278,10.92631932,7.597687235
0.82133,"","",8.506881714,-5.954750538,4.464449406,-9.710568428,-4.819492817,4.523647785,20.08332435,38.80496731,10.92147056,7.593654492
0.82200,"","",8.436341286,-5.975207806,4.493242741,-9.729553223,-4.771835327,4.469454288,20.45436034,38.98807256,10.6277005,7.60586474
0.82267,"","",8.365801811,-5.99566555,4.522035599,-9.747883797,-4.723913193,4.414884567,20.56087872,39.05317992,10.1629956,7.616730742
0.82333,"","",8.294714928,-6.016123295,4.550828457,-9.766868591,-4.676255703,4.360314846,20.53996085,39.06809525,9.717297822,7.599087493
0.82400,"","",8.224175453,-6.036581039,4.579621792,-9.78585434,-4.628333569,4.306121349,20.44712651,38.95490558,9.495418687,7.592310242
0.82467,"","",8.153635979,-6.057038784,4.60841465,-9.804839134,-4.580676079,4.251551628,20.38684446,38.97462914,9.406460148,7.609953492
0.82533,"","",8.069972038,-6.086795807,4.638736725,-9.825133324,-4.51792717,4.193594456,20.31167275,38.88920946,9.36172228,7.633029741
0.82600,"","",7.986308575,-6.116552353,4.669058323,-9.845428467,-4.455178261,4.135261536,20.16790008,38.65046612,9.356291673,7.645239989
0.82667,"","",7.902645111,-6.146618843,4.699380398,-9.865067482,-4.392428875,4.076928139,20.0648178,38.48772225,9.377173655,7.715532933
0.82733,"","",7.818981647,-6.176375866,4.729701996,-9.885362625,-4.329679966,4.018971443,20.14891124,38.41854262,9.31808346,7.910672864
0.82800,"","",7.735318184,-6.206442356,4.760024071,-9.905656815,-4.266931057,3.960638046,20.38895434,38.42129018,9.280651052,8.0433613
0.82867,"","",7.652201653,-6.236198902,4.790346146,-9.925951004,-4.204182148,3.902304888,20.72804081,38.47555449,9.217423259,8.037704258
0.82933,"","",7.568538189,-6.266265869,4.820667744,-9.946246147,-4.141168594,3.844347954,21.23724321,38.48909604,9.049785549,8.056691757
0.83000,"","",7.484874725,-6.296022415,4.850989819,-9.966540337,-4.078419209,3.786014557,21.23109446,38.4199164,8.845491231,8.162495239
0.83067,"","",7.401210785,-6.326089382,4.881056786,-9.986834526,-4.0156703,3.727681398,20.89333417,38.29107547,8.693628151,8.283421505
0.83133,"","",7.317547321,-6.355845928,4.91137886,-10.00647449,-3.952921391,3.669724464,21.17406765,38.09575339,8.662984003,8.333606747
0.83200,"","",7.233883858,-6.385912418,4.941700459,-10.02676868,-3.890172482,3.611391306,21.5999603,37.87393698,8.570792962,8.358027245
0.83267,"","",7.150220394,-6.415669441,4.972022533,-10.04706287,-3.827423334,3.553434372,21.67452919,37.72944476,8.469098354,8.343072492
0.83333,"","",7.067103863,-6.445735931,5.002344131,-10.06735802,-3.764674425,3.495101213,21.77417542,37.71109499,8.394556792,8.378078939
0.83400,"","",6.983440399,-6.475492477,5.032666206,-10.08765221,-3.701925516,3.436768055,21.95652859,37.64127752,8.273790407,8.49446837
0.83467,"","",6.899776936,-6.5052495,5.062987804,-10.1079464,-3.639176369,3.378811121,22.22430145,37.59721844,8.24262906,8.602736308
0.83533,"","",6.795334339,-6.532836437,5.079295635,-10.12038517,-3.561071157,3.316714525,22.49828334,37.57759301,8.197050735,8.776088229
0.83600,"","",6.690891743,-6.56011343,5.095348358,-10.13347816,-3.482965946,3.254994154,22.79667944,37.47926961,8.034843644,9.00102566
0.83667,"","",6.586449146,-6.587390423,5.111655712,-10.14657116,-3.404860735,3.193273783,23.18055549,37.31721264,8.078805712,9.175777849
0.83733,"","",6.482006073,-6.61497736,5.127708435,-10.15966511,-3.326755285,3.131177187,23.57793474,37.19857693,7.994695927,9.330366315
0.83800,"","",6.377017021,-6.642254353,5.144016266,-10.1727581,-3.248650074,3.069456816,23.99165039,37.09348276,7.902440237,9.48092204
0.83867,"","",6.272573948,-6.669531345,5.160068989,-10.18519688,-3.170544863,3.00736022,24.31916273,36.92328123,7.819688119,9.547406284
0.83933,"","",6.168131351,-6.697118282,5.176376343,-10.19828987,-3.092439413,2.945639849,24.24923556,36.73816437,7.705774638,9.607113278
0.84000,"","",6.063688755,-6.724395275,5.192429066,-10.21138287,-3.014334202,2.883919477,24.35503054,36.60593804,7.616234258,9.756100722
0.84067,"","",5.959246159,-6.751671791,5.208736897,-10.22447586,-2.936228991,2.821822882,24.51447655,36.48048249,7.610803647,9.952808949
0.84133,"","",5.854803562,-6.779258728,5.224789619,-10.23691463,-2.858123779,2.76010251,24.51658642,36.31847458,7.671833344,10.01789293
0.84200,"","",5.750360966,-6.806535721,5.241096973,-10.25000763,-2.78001833,2.698382139,24.42242587,36.19032053,7.736095543,10.05878046
0.84267,"","",5.645918369,-6.833812714,5.257149696,-10.26310062,-2.701913118,2.636285543,24.49434234,36.10151547,7.77275215,10.08588945
0.84333,"","",5.541475773,-6.861399651,5.273457527,-10.27619457,-2.623807907,2.574565172,24.74391001,35.92998922,7.782255716,10.11955165
0.84400,"","",5.437033176,-6.888676643,5.28951025,-10.28863239,-2.545702457,2.512468576,24.90534531,35.56858695,7.783613369,10.1790346
0.84467,"","",5.332590103,-6.915953636,5.305817604,-10.30172634,-2.467597246,2.450748205,24.95085826,35.02000716,7.803978152,10.22490705
0.84533,"","",5.204087734,-6.929282188,5.322125435,-10.30761814,-2.383137703,2.397683859,25.46295422,34.44561994,7.852013178,10.24910351
0.84600,"","",5.076131821,-6.942610741,5.338432789,-10.31285477,-2.298413277,2.34424305,26.03533223,34.12758987,7.901405857,10.26377821
0.84667,"","",4.948175907,-6.955939293,5.354485512,-10.31874752,-2.213953733,2.291178703,26.31883866,34.10452999,7.967090353,10.28388592
0.84733,"","",4.819673061,-6.969267845,5.370793343,-10.32398415,-2.12949419,2.238114357,26.35542987,33.89022031,8.015125377,10.30264937
0.84800,"","",4.691717148,-6.982286453,5.387100697,-10.32922173,-2.044769764,2.184673548,26.4164353,33.67046457,8.075379267,10.32819007
0.84867,"","",4.563761234,-6.995615005,5.403408527,-10.33511353,-1.960310102,2.131608963,26.72978136,33.67321213,8.170350258,10.40257177
0.84933,"","",4.435258389,-7.008943558,5.419715881,-10.3403511,-1.875850558,2.078544617,27.2831705,33.56541946,8.231444601,10.51627272
0.85000,"","",4.307302475,-7.02227211,5.436023235,-10.3462429,-1.791126132,2.025103807,27.83595682,33.45085602,8.308766116,10.6068974
0.85067,"","",4.178799629,-7.035600662,5.452331066,-10.35148048,-1.706666589,1.972039461,28.26257283,33.42573548,8.414598327,10.63383837
0.85133,"","",4.050843716,-7.048929214,5.468383789,-10.35737228,-1.622206926,1.918974996,28.55897963,33.3070507,8.510926979,10.60784958
0.85200,"","",3.922887802,-7.061947823,5.484691143,-10.36260891,-1.5374825,1.865534306,28.70896136,33.15034165,8.56652606,10.5927268
0.85267,"","",3.794385195,-7.075276375,5.500998974,-10.36784649,-1.453022957,1.81246984,28.83989396,32.92445297,8.582817886,10.604713
0.85333,"","",3.666429281,-7.088604927,5.517306328,-10.37373829,-1.368563294,1.759405375,29.08753259,32.63075842,8.58010258,10.58006846
0.85400,"","",3.538473368,-7.101933002,5.533614159,-10.37897587,-1.283838987,1.705964684,29.41926466,32.38318365,8.552949535,10.53778067
0.85467,"","",3.409970522,-7.115261555,5.549921513,-10.38486767,-1.199379325,1.652900219,29.78626175,32.24138994,8.508211671,10.53077938
0.85533,"","",3.26560998,-7.140058994,5.565974236,-10.37963009,-1.12656939,1.617523909,30.16001042,32.08468088,8.483838584,10.53077938
0.85600,"","",3.121249437,-7.164856434,5.581772327,-10.37373829,-1.0540241,1.582147717,30.41572685,31.854769,8.468969064,10.56337739
0.85667,"","",2.976342201,-7.189653397,5.59782505,-10.36850166,-0.9812141061,1.546771407,30.47341677,31.68451841,8.475757326,10.63523862
0.85733,"","",2.831981659,-7.214450836,5.613877773,-10.36326408,-0.9084041119,1.511018753,30.43622276,31.67838546,8.466835614,10.75325236
0.85800,"","",2.687621117,-7.239247799,5.629675865,-10.3580265,-0.8355941176,1.475642443,30.42886836,31.63496421,8.417248983,10.81564785
0.85867,"","",2.543260574,-7.264045238,5.645728588,-10.35278988,-0.7630488873,1.440266252,30.46491703,31.43556986,8.47472292,10.88347634
0.85933,"","",2.398353338,-7.288842678,5.661781311,-10.3475523,-0.6902388334,1.404889941,30.52266722,31.33386108,8.454358133,10.9294048
0.86000,"","",2.253992796,-7.313639641,5.677834034,-10.34231472,-0.6174288392,1.369513631,30.58095996,31.40436543,8.352598871,10.984799
0.86067,"","",2.109632254,-7.33843708,5.693632126,-10.33642292,-0.544618845,1.334137321,30.57885009,31.45244773,8.235905446,11.08516949
0.86133,"","",1.965271711,-7.363544464,5.709684849,-10.33118534,-0.4720736146,1.298761129,30.6892868,31.53992808,8.275794556,11.14347623
0.86200,"","",1.820911169,-7.388341427,5.725737572,-10.32594872,-0.3992635906,1.263008475,30.84861224,31.56367485,8.161040633,11.13826727
0.86267,"","",1.676003814,-7.413138866,5.741535187,-10.32071114,-0.3264535964,1.227632165,31.00456189,31.5466498,8.107381054,11.2101285
0.86333,"","",1.531643271,-7.437935829,5.757588387,-10.31547356,-0.2536435723,1.192255855,30.96929689,31.62868409,8.094321735,11.41764672
0.86400,"","",1.387282729,-7.462733269,5.773641109,-10.31023693,-0.1810983419,1.156879663,30.86488838,31.7209236,8.063677585,11.54899091
0.86467,"","",1.242922306,-7.487530708,5.789693832,-10.30499935,-0.1082883328,1.121503353,30.84318685,31.85447464,8.123349627,11.54198962
0.86533,"","",1.075048447,-7.528135777,5.788164616,-10.28274059,-0.03203640133,1.088008761,30.88387723,31.88494312,8.03380923,11.51325633
0.86600,"","",0.9077214599,-7.569051266,5.786635876,-10.26048279,0.04395076632,1.054890513,30.84921506,31.92561682,8.05688931,11.51577679
0.86667,"","",0.7403945327,-7.609656811,5.785107136,-10.23887825,0.1202026978,1.021396041,30.90407172,31.78863132,8.072340686,11.49544505
0.86733,"","",0.5730675459,-7.650262356,5.783578396,-10.21662045,0.1964546293,0.9882777929,30.99359055,31.74521006,8.043894641,11.47920206
0.86800,"","",0.4057405591,-7.690867901,5.782049656,-10.19436169,0.2724418044,0.9547832012,31.09323677,31.71400563,7.897397517,11.45752606
0.86867,"","",0.2384135872,-7.73178339,5.780775547,-10.1727581,0.3486937284,0.9212886691,30.88496232,31.41290249,7.840440776,11.43064111
0.86933,"","",0.07108662277,-7.772388935,5.779246807,-10.15049934,0.4246809185,0.8881704211,30.6177923,30.98290933,7.804366021,11.4511969
0.87000,"","",-0.09678716958,-7.81299448,5.77771759,-10.12824154,0.5009328127,0.854675889,30.65709618,30.65334934,7.799517263,11.42700044
0.87067,"","",-0.2641141415,-7.853909969,5.77618885,-10.106637,0.5771847963,0.821557641,30.80768072,30.34817393,7.822597351,11.47987418
0.87133,"","",-0.4314411283,-7.894515514,5.77466011,-10.0843792,0.6531719565,0.7880631089,30.79411726,30.09588905,7.823179203,11.47304092
0.87200,"","",-0.598768115,-7.935121059,5.773131371,-10.06212044,0.7294238806,0.7549448609,30.81853148,30.09049206,7.783031489,11.65613864
0.87267,"","",-0.7660950422,-7.976036549,5.771602631,-10.04051685,0.8054110408,0.7214503288,30.70942098,29.95689195,7.768097316,11.93422986
0.87333,"","",-0.933422029,-8.016641617,5.770328522,-10.01825809,0.8816629648,0.6883320808,30.58734985,29.90733775,7.754520794,12.19467783
0.87400,"","",-1.100749016,-8.057247162,5.768799782,-9.99600029,0.9579148889,0.6548375487,30.61580297,29.7913024,7.702154215,12.42521629
0.87467,"","",-1.268075943,-8.098162651,5.767270565,-9.973741531,1.033902049,0.621342957,30.65920604,29.41827207,7.59418855,12.56490601
0.87533,"","",-1.445792556,-8.154886246,5.751217842,-9.971776962,1.090826273,0.6021494269,30.77856449,28.91644986,7.562186751,12.58663801
0.87600,"","",-1.623509049,-8.211919785,5.735165119,-9.969159126,1.147750497,0.5833323002,31.08437528,28.40236178,7.554040838,12.5936393
0.87667,"","",-1.800678849,-8.268954277,5.719112396,-9.967194557,1.204674602,0.5641387701,31.36709806,28.00362212,7.533676055,12.62371684
0.87733,"","",-1.978395343,-8.325987816,5.703314781,-9.964575768,1.261598825,0.54494524,31.5657274,28.03482656,7.555398489,12.63615113
0.87800,"","",-2.155565023,-8.382711411,5.687261581,-9.962612152,1.318523049,0.5257517099,31.72710243,27.5594496,7.524754341,12.64315242
0.87867,"","",-2.333281755,-8.439744949,5.671208858,-9.959993362,1.375447154,0.5065582395,31.82072045,26.93217183,7.475103066,12.67048545
0.87933,"","",-2.510451317,-8.496778488,5.655156136,-9.958029747,1.432371378,0.4873647094,31.8695489,26.53411908,7.451247179,12.73719374
0.88000,"","",-2.688168049,-8.553812027,5.639103413,-9.955410957,1.489030838,0.4681712091,31.98016645,26.32324385,7.447756074,12.85929623
0.88067,"","",-2.865884542,-8.610535622,5.62305069,-9.953447342,1.545954943,0.448977679,32.07854674,26.24390806,7.456483836,12.97999846
0.88133,"","",-3.043054342,-8.667570114,5.606997967,-9.950828552,1.602879167,0.4297841787,32.23528004,26.26426944,7.473357512,13.01119621
0.88200,"","",-3.220770836,-8.724603653,5.591199875,-9.948863983,1.659803391,0.4105906487,32.45036637,26.23851107,7.494304144,13.02995966
0.88267,"","",-3.397940636,-8.781327248,5.575147152,-9.946246147,1.716727614,0.3913971484,32.78475086,26.14146332,7.503031908,13.01640517
0.88333,"","",-3.575657129,-8.838360786,5.559094429,-9.944281578,1.773651719,0.3722036183,33.21685254,26.0376448,7.496825499,13.02043791
0.88400,"","",-3.752826929,-8.895394325,5.543041706,-9.941662788,1.830575943,0.353010118,33.45225393,26.03224781,7.486546134,13.03152795
0.88467,"","",-3.930543423,-8.952427864,5.526988983,-9.939699173,1.887500167,0.3338165879,33.33771805,25.93186374,7.468120857,13.03556069
0.88533,"","",-4.112087727,-8.995512962,5.504056454,-9.88405323,1.892001152,0.2687091827,33.41096073,25.5358226,7.46411255,13.00436295
0.88600,"","",-4.293085098,-9.038599014,5.480869293,-9.828407288,1.896502137,0.2039781213,33.60898724,24.99053006,7.441097115,12.9921527
0.88667,"","",-4.474629402,-9.081994057,5.457936764,-9.773415565,1.901003003,0.1388707161,33.88218547,24.54900698,7.427520593,13.0138287
0.88733,"","",-4.656173706,-9.125079155,5.435004234,-9.717769623,1.905503988,0.07376331091,34.13374243,24.27969705,7.435149305,12.9948412
0.88800,"","",-4.837171078,-9.168164253,5.411817074,-9.66212368,1.910004973,0.008655898273,34.39337719,24.19079386,7.433791653,13.01769341
0.88867,"","",-5.018715382,-9.211559296,5.388884544,-9.607131958,1.914505959,-0.05645151064,34.62184614,24.19761369,7.43870506,13.02855941
0.88933,"","",-5.200259686,-9.254644394,5.365696907,-9.551486015,1.919271708,-0.1215589195,34.80630919,24.19623991,7.447626775,13.05320395
0.89000,"","",-5.381257534,-9.297729492,5.342764378,-9.496494293,1.923772693,-0.1866663247,34.99752383,24.09992812,7.456548487,13.05202773
0.89067,"","",-5.562801361,-9.341125488,5.319831848,-9.440848351,1.928273678,-0.2513974011,35.12833587,23.87340163,7.484477329,13.04273002
0.89133,"","",-5.744345665,-9.384210587,5.296644688,-9.385202408,1.932774663,-0.3165048063,35.14931401,23.79607743,7.534128605,13.02799931
0.89200,"","",-5.925889969,-9.427295685,5.273712158,-9.330210686,1.937275648,-0.3816122115,35.22587221,23.55669627,7.591085342,12.99024835
0.89267,"","",-6.106887817,-9.470690727,5.250524998,-9.274564743,1.941776633,-0.4467196167,35.43474949,23.05963323,7.657028443,12.95787439
0.89333,"","",-6.288432121,-9.513775826,5.227592468,-9.219573021,1.946277618,-0.5118270516,35.63958789,22.68596506,7.699891458,12.96621993
0.89400,"","",-6.469976425,-9.556860924,5.204659939,-9.163927078,1.950778604,-0.5769344568,35.76298522,22.55104024,7.712950777,12.99220871
0.89467,"","",-6.650973797,-9.600255966,5.181472778,-9.108281136,1.955544353,-0.642041862,35.92845943,22.35508034,7.753098489,13.01959776
0.89533,"","",-6.793147087,-9.622883797,5.147073746,-9.050671577,1.928008914,-0.6638697982,36.24855707,22.17467359,7.827187499,13.01282051
0.89600,"","",-6.935320377,-9.645821571,5.11267519,-8.993061066,1.900208712,-0.6860740185,36.54345681,21.84236603,7.898561208,12.94902476
0.89667,"","",-7.077493668,-9.668448448,5.078021526,-8.935451508,1.872673392,-0.7082782984,36.53260604,20.81831119,7.980796137,12.88914974
0.89733,"","",-7.220213413,-9.691386223,5.043622971,-8.877840996,1.845137954,-0.7304825783,37.05205643,19.66943855,8.074344834,12.8373962
0.89800,"","",-7.362386703,-9.714323997,5.009223938,-8.819576263,1.817602515,-0.7523104548,37.73101308,18.9668482,8.163303373,12.83330745
0.89867,"","",-7.504559994,-9.736950874,4.974570274,-8.761965752,1.790067077,-0.7745147347,38.02338099,18.52395135,8.256334869,12.88371674
0.89933,"","",-7.646733284,-9.759888649,4.940171719,-8.704356194,1.762531638,-0.7967190146,38.12718668,18.4228804,8.372446446,12.88259653
0.90000,"","",-7.788906574,-9.782826424,4.905772686,-8.646745682,1.7349962,-0.8189232349,38.18626308,18.46689042,8.474981507,12.86517732
0.90067,"","",-7.931079865,-9.8054533,4.871119499,-8.589136124,1.70746088,-0.8407511711,38.25950576,18.38142167,8.563940044,12.84641387
0.90133,"","",-8.073252678,-9.828391075,4.836720467,-8.530871391,1.679925442,-0.862955451,38.46759937,18.13458283,8.669190407,12.84254916
0.90200,"","",-8.215426445,-9.85132885,4.802321911,-8.47326088,1.652390003,-0.8851596713,38.65941684,18.03483659,8.774440768,12.87122644
0.90267,"","",-8.357599258,-9.873955727,4.767922878,-8.415651321,1.624854565,-0.9073639512,38.74140042,18.07207584,8.84497403,12.89178223
0.90333,"","",-8.499773026,-9.896893501,4.733269691,-8.35804081,1.597319126,-0.9291918874,38.80921772,18.087629,8.89792246,12.89066202
0.90400,"","",-8.641945839,-9.919831276,4.698870659,-8.300431252,1.569783688,-0.9513961077,38.96926654,18.1330128,8.946797938,12.92348406
0.90467,"","",-8.784119606,-9.942458153,4.664472103,-8.242166519,1.542248249,-0.9736003876,38.97330544,18.11534992,9.003754677,12.94947285
0.90533,"","",-8.938322067,-9.928509712,4.617842674,-8.178009987,1.581962824,-1.014998198,39.20117157,18.07948444,9.061551866,12.96577185
0.90600,"","",-9.091979027,-9.914561272,4.571213245,-8.113853455,1.621677399,-1.056772232,39.49552878,18.01643775,9.125296863,13.07157534
0.90667,"","",-9.245635033,-9.900302887,4.524583817,-8.049041748,1.661391973,-1.098170042,39.75865988,17.95339106,9.175529987,13.13665932
0.90733,"","",-9.399838448,-9.886354446,4.477954388,-7.984885216,1.701106548,-1.139944196,39.90514524,17.91885031,9.251493856,13.14618108
0.90800,"","",-9.553495407,-9.872406006,4.431324959,-7.920073986,1.740821004,-1.181342006,39.96832082,17.91144171,9.339676589,13.13285062
0.90867,"","",-9.707151413,-9.858147621,4.38469553,-7.855916977,1.780535579,-1.22311604,40.19287144,17.92027315,9.416998108,13.11655162
